<Ticker>,<DTYYYYMMDD>,<OpenFixed>,<HighFixed>,<LowFixed>,<CloseFixed>,<Volume>
EMG,20170216,22.4000,22.4000,22.4000,22.4000,1200
EMG,20170217,20.0000,20.0000,20.0000,20.0000,800
EMG,20170220,20.0000,20.0000,20.0000,20.0000,1000
EMG,20170221,20.0000,20.0000,20.0000,20.0000,0
EMG,20170222,20.0000,20.0000,20.0000,20.0000,0
EMG,20170223,20.0000,20.0000,20.0000,20.0000,0
EMG,20170224,18.5000,18.5000,18.5000,18.5000,100
EMG,20170227,18.5000,18.5000,18.5000,18.5000,0
EMG,20170228,18.5000,18.5000,18.5000,18.5000,0
EMG,20170301,18.5000,18.5000,18.5000,18.5000,0
EMG,20170302,18.5000,18.5000,18.5000,18.5000,0
EMG,20170303,18.5000,18.5000,18.5000,18.5000,0
EMG,20170306,15.8000,15.8000,15.8000,15.8000,100
EMG,20170307,15.8000,15.8000,15.8000,15.8000,0
EMG,20170308,15.8000,15.8000,15.8000,15.8000,0
EMG,20170309,15.8000,15.8000,15.8000,15.8000,0
EMG,20170310,15.8000,15.8000,15.8000,15.8000,0
EMG,20170313,15.8000,15.8000,15.8000,15.8000,0
EMG,20170314,15.8000,15.8000,15.8000,15.8000,0
EMG,20170315,15.8000,15.8000,15.8000,15.8000,0
EMG,20170316,15.8000,15.8000,15.8000,15.8000,0
EMG,20170317,15.8000,15.8000,15.8000,15.8000,0
EMG,20170320,15.8000,15.8000,15.8000,15.8000,0
EMG,20170321,15.8000,15.8000,15.8000,15.8000,0
EMG,20170322,15.8000,15.8000,15.8000,15.8000,0
EMG,20170323,15.8000,15.8000,15.8000,15.8000,0
EMG,20170324,15.8000,15.8000,15.8000,15.8000,0
EMG,20170327,15.8000,15.8000,15.8000,15.8000,0
EMG,20170328,15.8000,15.8000,15.8000,15.8000,0
EMG,20170329,15.8000,15.8000,15.8000,15.8000,0
EMG,20170330,15.8000,15.8000,15.8000,15.8000,0
EMG,20170331,15.8000,15.8000,15.8000,15.8000,0
EMG,20170403,15.8000,15.8000,15.8000,15.8000,0
EMG,20170404,15.8000,15.8000,15.8000,15.8000,0
EMG,20170405,15.8000,15.8000,15.8000,15.8000,0
EMG,20170407,15.8000,15.8000,15.8000,15.8000,0
EMG,20170410,15.8000,15.8000,15.8000,15.8000,0
EMG,20170411,15.8000,15.8000,15.8000,15.8000,0
EMG,20170412,15.8000,15.8000,15.8000,15.8000,0
EMG,20170413,15.8000,15.8000,15.8000,15.8000,0
EMG,20170414,15.8000,15.8000,15.8000,15.8000,0
EMG,20170417,15.8000,15.8000,15.8000,15.8000,0
EMG,20170418,15.8000,15.8000,15.8000,15.8000,0
EMG,20170419,15.8000,15.8000,15.8000,15.8000,0
EMG,20170420,15.8000,15.8000,15.8000,15.8000,0
EMG,20170421,15.8000,15.8000,15.8000,15.8000,0
EMG,20170424,15.8000,15.8000,15.8000,15.8000,0
EMG,20170425,15.8000,15.8000,15.8000,15.8000,0
EMG,20170426,15.8000,15.8000,15.8000,15.8000,0
EMG,20170427,15.8000,15.8000,15.8000,15.8000,0
EMG,20170428,15.8000,15.8000,15.8000,15.8000,0
EMG,20170503,15.8000,15.8000,15.8000,15.8000,0
EMG,20170504,15.8000,15.8000,15.8000,15.8000,0
EMG,20170505,15.8000,15.8000,15.8000,15.8000,0
EMG,20170508,15.8000,15.8000,15.8000,15.8000,0
EMG,20170509,15.8000,15.8000,15.8000,15.8000,0
EMG,20170510,15.8000,15.8000,15.8000,15.8000,0
EMG,20170511,15.8000,15.8000,15.8000,15.8000,0
EMG,20170512,15.8000,15.8000,15.8000,15.8000,0
EMG,20170515,15.8000,15.8000,15.8000,15.8000,0
EMG,20170516,15.8000,15.8000,15.8000,15.8000,0
EMG,20170517,15.8000,15.8000,15.8000,15.8000,0
EMG,20170518,15.8000,15.8000,15.8000,15.8000,0
EMG,20170519,15.8000,15.8000,15.8000,15.8000,0
EMG,20170522,15.8000,15.8000,15.8000,15.8000,0
EMG,20170523,15.8000,15.8000,15.8000,15.8000,0
EMG,20170524,15.8000,15.8000,15.8000,15.8000,0
EMG,20170525,15.8000,15.8000,15.8000,15.8000,0
EMG,20170526,15.8000,15.8000,15.8000,15.8000,0
EMG,20170529,17.1000,17.1000,17.1000,17.1000,3000
EMG,20170530,17.1000,17.1000,17.1000,17.1000,0
EMG,20170531,17.1000,17.1000,17.1000,17.1000,0
EMG,20170601,17.1000,17.1000,17.1000,17.1000,0
EMG,20170602,17.1000,17.1000,17.1000,17.1000,0
EMG,20170605,17.1000,17.1000,17.1000,17.1000,0
EMG,20170606,17.1000,17.1000,17.1000,17.1000,0
EMG,20170607,17.1000,17.1000,17.1000,17.1000,0
EMG,20170608,17.1000,17.1000,17.1000,17.1000,0
EMG,20170609,17.1000,17.1000,17.1000,17.1000,0
EMG,20170612,17.1000,17.1000,17.1000,17.1000,0
EMG,20170613,17.1000,17.1000,17.1000,17.1000,0
EMG,20170614,17.1000,17.1000,17.1000,17.1000,0
EMG,20170615,17.1000,17.1000,17.1000,17.1000,0
EMG,20170616,17.1000,17.1000,17.1000,17.1000,0
EMG,20170619,17.1000,17.1000,17.1000,17.1000,0
EMG,20170620,17.1000,17.1000,17.1000,17.1000,0
EMG,20170621,17.1000,17.1000,17.1000,17.1000,0
EMG,20170622,17.1000,17.1000,17.1000,17.1000,0
EMG,20170623,17.1000,17.1000,17.1000,17.1000,0
EMG,20170626,17.1000,17.1000,17.1000,17.1000,0
EMG,20170627,17.1000,17.1000,17.1000,17.1000,0
EMG,20170628,17.1000,17.1000,17.1000,17.1000,0
EMG,20170629,17.1000,17.1000,17.1000,17.1000,0
EMG,20170630,17.1000,17.1000,17.1000,17.1000,0
EMG,20170703,17.1000,17.1000,17.1000,17.1000,0
EMG,20170704,17.1000,17.1000,17.1000,17.1000,0
EMG,20170705,17.1000,17.1000,17.1000,17.1000,0
EMG,20170706,17.1000,17.1000,17.1000,17.1000,0
EMG,20170707,17.1000,17.1000,17.1000,17.1000,0
EMG,20170710,17.1000,17.1000,17.1000,17.1000,0
EMG,20170711,17.1000,17.1000,17.1000,17.1000,0
EMG,20170712,17.1000,17.1000,17.1000,17.1000,0
EMG,20170713,17.1000,17.1000,17.1000,17.1000,0
EMG,20170714,17.1000,17.1000,17.1000,17.1000,0
EMG,20170717,17.1000,17.1000,17.1000,17.1000,0
EMG,20170718,17.1000,17.1000,17.1000,17.1000,0
EMG,20170719,17.1000,17.1000,17.1000,17.1000,0
EMG,20170720,17.1000,17.1000,17.1000,17.1000,0
EMG,20170721,17.1000,17.1000,17.1000,17.1000,0
EMG,20170724,17.1000,17.1000,17.1000,17.1000,0
EMG,20170725,17.1000,17.1000,17.1000,17.1000,0
EMG,20170726,11.8289,11.8289,11.8289,11.8289,0
EMG,20170727,11.8289,11.8289,11.8289,11.8289,0
EMG,20170728,11.8289,11.8289,11.8289,11.8289,0
EMG,20170731,11.8289,11.8289,11.8289,11.8289,0
EMG,20170801,11.8289,11.8289,11.8289,11.8289,0
EMG,20170802,11.8289,11.8289,11.8289,11.8289,0
EMG,20170803,11.8289,11.8289,11.8289,11.8289,0
EMG,20170804,11.8289,11.8289,11.8289,11.8289,0
EMG,20170807,11.8289,11.8289,11.8289,11.8289,0
EMG,20170808,11.8289,11.8289,11.8289,11.8289,0
EMG,20170809,11.8289,11.8289,11.8289,11.8289,0
EMG,20170810,11.8289,11.8289,11.8289,11.8289,0
EMG,20170811,11.8289,11.8289,11.8289,11.8289,0
EMG,20170814,11.8289,11.8289,11.8289,11.8289,0
EMG,20170815,11.8289,11.8289,11.8289,11.8289,0
EMG,20170816,11.8289,11.8289,11.8289,11.8289,0
EMG,20170817,11.8289,11.8289,11.8289,11.8289,0
EMG,20170818,11.8289,11.8289,11.8289,11.8289,0
EMG,20170821,11.8289,11.8289,11.8289,11.8289,0
EMG,20170822,11.8289,11.8289,11.8289,11.8289,0
EMG,20170823,11.8289,11.8289,11.8289,11.8289,0
EMG,20170824,11.8289,11.8289,11.8289,11.8289,0
EMG,20170825,11.8289,11.8289,11.8289,11.8289,0
EMG,20170828,11.8289,11.8289,11.8289,11.8289,0
EMG,20170829,11.8289,11.8289,11.8289,11.8289,0
EMG,20170830,11.8289,11.8289,11.8289,11.8289,0
EMG,20170831,11.8289,11.8289,11.8289,11.8289,0
EMG,20170901,11.8289,11.8289,11.8289,11.8289,0
EMG,20170905,11.8289,11.8289,11.8289,11.8289,0
EMG,20170906,11.8289,11.8289,11.8289,11.8289,0
EMG,20170907,11.8289,11.8289,11.8289,11.8289,0
EMG,20170908,11.8289,11.8289,11.8289,11.8289,0
EMG,20170911,11.8289,11.8289,11.8289,11.8289,0
EMG,20170912,11.8289,11.8289,11.8289,11.8289,0
EMG,20170913,11.8289,11.8289,11.8289,11.8289,0
EMG,20170914,11.8289,11.8289,11.8289,11.8289,0
EMG,20170915,11.8289,11.8289,11.8289,11.8289,0
EMG,20170918,11.8289,11.8289,11.8289,11.8289,0
EMG,20170919,11.8289,11.8289,11.8289,11.8289,0
EMG,20170920,11.8289,11.8289,11.8289,11.8289,0
EMG,20170921,11.8289,11.8289,11.8289,11.8289,0
EMG,20170922,11.8289,11.8289,11.8289,11.8289,0
EMG,20170925,11.8289,11.8289,11.8289,11.8289,0
EMG,20170926,11.8289,11.8289,11.8289,11.8289,0
EMG,20170927,11.8289,11.8289,11.8289,11.8289,0
EMG,20170928,11.8289,11.8289,11.8289,11.8289,0
EMG,20170929,11.8289,11.8289,11.8289,11.8289,0
EMG,20171002,11.8289,11.8289,11.8289,11.8289,0
EMG,20171003,11.8289,11.8289,11.8289,11.8289,0
EMG,20171004,11.8289,11.8289,11.8289,11.8289,0
EMG,20171005,11.8289,11.8289,11.8289,11.8289,0
EMG,20171006,11.8289,11.8289,11.8289,11.8289,0
EMG,20171009,11.8289,11.8289,11.8289,11.8289,0
EMG,20171010,11.8289,11.8289,11.8289,11.8289,0
EMG,20171011,11.8289,11.8289,11.8289,11.8289,0
EMG,20171012,11.8289,11.8289,11.8289,11.8289,0
EMG,20171013,11.8289,11.8289,11.8289,11.8289,0
EMG,20171016,11.8289,11.8289,11.8289,11.8289,0
EMG,20171017,11.8289,11.8289,11.8289,11.8289,0
EMG,20171018,11.8289,11.8289,11.8289,11.8289,0
EMG,20171019,11.8289,11.8289,11.8289,11.8289,0
EMG,20171020,11.8289,11.8289,11.8289,11.8289,0
EMG,20171023,11.8289,11.8289,11.8289,11.8289,0
EMG,20171024,11.8289,11.8289,11.8289,11.8289,0
EMG,20171025,11.8289,11.8289,11.8289,11.8289,0
EMG,20171026,11.8289,11.8289,11.8289,11.8289,0
EMG,20171027,11.8289,11.8289,11.8289,11.8289,0
EMG,20171030,11.8289,11.8289,11.8289,11.8289,0
EMG,20171031,11.8289,11.8289,11.8289,11.8289,0
EMG,20171101,11.8289,11.8289,11.8289,11.8289,0
EMG,20171102,11.8289,11.8289,11.8289,11.8289,0
EMG,20171103,11.8289,11.8289,11.8289,11.8289,0
EMG,20171106,11.8289,11.8289,11.8289,11.8289,0
EMG,20171107,11.8289,11.8289,11.8289,11.8289,0
EMG,20171108,11.8289,11.8289,11.8289,11.8289,0
EMG,20171109,11.8289,11.8289,11.8289,11.8289,0
EMG,20171110,11.8289,11.8289,11.8289,11.8289,0
EMG,20171113,11.8289,11.8289,11.8289,11.8289,0
EMG,20171114,11.8289,11.8289,11.8289,11.8289,0
EMG,20171115,11.8289,11.8289,11.8289,11.8289,0
EMG,20171116,11.8289,11.8289,11.8289,11.8289,0
EMG,20171117,11.8289,11.8289,11.8289,11.8289,0
EMG,20171120,11.8289,11.8289,11.8289,11.8289,0
EMG,20171121,11.8289,11.8289,11.8289,11.8289,0
EMG,20171122,11.8289,11.8289,11.8289,11.8289,0
EMG,20171123,11.8289,11.8289,11.8289,11.8289,0
EMG,20171124,11.8289,11.8289,11.8289,11.8289,0
EMG,20171127,11.8289,11.8289,11.8289,11.8289,0
EMG,20171128,11.8289,11.8289,11.8289,11.8289,0
EMG,20171129,11.8289,11.8289,11.8289,11.8289,0
EMG,20171130,11.8289,11.8289,11.8289,11.8289,0
EMG,20171201,11.8289,11.8289,11.8289,11.8289,0
EMG,20171204,11.8289,11.8289,11.8289,11.8289,0
EMG,20171205,11.8289,11.8289,11.8289,11.8289,0
EMG,20171206,11.8289,11.8289,11.8289,11.8289,0
EMG,20171207,11.8289,11.8289,11.8289,11.8289,0
EMG,20171208,11.8289,11.8289,11.8289,11.8289,0
EMG,20171211,11.8289,11.8289,11.8289,11.8289,0
EMG,20171212,11.8289,11.8289,11.8289,11.8289,0
EMG,20171213,11.8289,11.8289,11.8289,11.8289,0
EMG,20171214,11.8289,11.8289,11.8289,11.8289,0
EMG,20171215,11.8289,11.8289,11.8289,11.8289,0
EMG,20171218,11.8289,11.8289,11.8289,11.8289,0
EMG,20171219,11.8289,11.8289,11.8289,11.8289,0
EMG,20171220,11.8289,11.8289,11.8289,11.8289,0
EMG,20171221,11.8289,11.8289,11.8289,11.8289,0
EMG,20171222,11.8289,11.8289,11.8289,11.8289,0
EMG,20171225,11.8289,11.8289,11.8289,11.8289,0
EMG,20171226,11.8289,11.8289,11.8289,11.8289,0
EMG,20171227,11.8289,11.8289,11.8289,11.8289,0
EMG,20171228,11.8289,11.8289,11.8289,11.8289,0
EMG,20171229,11.8289,11.8289,11.8289,11.8289,0
EMG,20180102,11.8289,11.8289,11.8289,11.8289,0
EMG,20180103,11.8289,11.8289,11.8289,11.8289,0
EMG,20180104,11.8289,11.8289,11.8289,11.8289,0
EMG,20180105,11.8289,11.8289,11.8289,11.8289,0
EMG,20180108,11.8289,11.8289,11.8289,11.8289,0
EMG,20180109,11.8289,11.8289,11.8289,11.8289,0
EMG,20180110,11.8289,11.8289,11.8289,11.8289,0
EMG,20180111,11.8289,11.8289,11.8289,11.8289,0
EMG,20180112,11.8289,11.8289,11.8289,11.8289,0
EMG,20180115,11.8289,11.8289,11.8289,11.8289,0
EMG,20180116,11.8289,11.8289,11.8289,11.8289,0
EMG,20180117,11.8289,11.8289,11.8289,11.8289,0
EMG,20180118,11.8289,11.8289,11.8289,11.8289,0
EMG,20180119,11.8289,11.8289,11.8289,11.8289,0
EMG,20180122,11.8289,11.8289,11.8289,11.8289,0
EMG,20180123,11.8289,11.8289,11.8289,11.8289,0
EMG,20180124,11.8289,11.8289,11.8289,11.8289,0
EMG,20180125,11.8289,11.8289,11.8289,11.8289,0
EMG,20180126,11.8289,11.8289,11.8289,11.8289,0
EMG,20180129,11.8289,11.8289,11.8289,11.8289,0
EMG,20180130,11.8289,11.8289,11.8289,11.8289,0
EMG,20180131,11.8289,11.8289,11.8289,11.8289,0
EMG,20180201,11.8289,11.8289,11.8289,11.8289,0
EMG,20180202,11.8289,11.8289,11.8289,11.8289,0
EMG,20180205,11.8289,11.8289,11.8289,11.8289,0
EMG,20180206,11.8289,11.8289,11.8289,11.8289,0
EMG,20180207,11.8289,11.8289,11.8289,11.8289,0
EMG,20180208,11.8289,11.8289,11.8289,11.8289,0
EMG,20180209,11.8289,11.8289,11.8289,11.8289,0
EMG,20180212,11.8289,11.8289,11.8289,11.8289,0
EMG,20180213,11.8289,11.8289,11.8289,11.8289,0
EMG,20180221,11.8289,11.8289,11.8289,11.8289,0
EMG,20180222,11.8289,11.8289,11.8289,11.8289,0
EMG,20180223,11.8289,11.8289,11.8289,11.8289,0
EMG,20180226,11.8289,11.8289,11.8289,11.8289,0
EMG,20180227,11.8289,11.8289,11.8289,11.8289,0
EMG,20180228,11.8289,11.8289,11.8289,11.8289,0
EMG,20180301,11.8289,11.8289,11.8289,11.8289,0
EMG,20180302,11.8289,11.8289,11.8289,11.8289,0
EMG,20180305,12.8387,12.8387,12.8387,12.8387,1000
EMG,20180306,12.8387,12.8387,12.8387,12.8387,0
EMG,20180307,12.8387,12.8387,12.8387,12.8387,0
EMG,20180308,12.8387,12.8387,12.8387,12.8387,0
EMG,20180309,12.8387,12.8387,12.8387,12.8387,0
EMG,20180312,12.8387,12.8387,12.8387,12.8387,0
EMG,20180313,12.8387,12.8387,12.8387,12.8387,0
EMG,20180314,12.8387,12.8387,12.8387,12.8387,0
EMG,20180315,12.8387,12.8387,12.8387,12.8387,0
EMG,20180316,12.8387,12.8387,12.8387,12.8387,0
EMG,20180319,12.8387,12.8387,12.8387,12.8387,0
EMG,20180320,12.8387,12.8387,12.8387,12.8387,0
EMG,20180321,12.8387,12.8387,12.8387,12.8387,0
EMG,20180322,12.8387,12.8387,12.8387,12.8387,0
EMG,20180323,12.8387,12.8387,12.8387,12.8387,0
EMG,20180326,12.8387,12.8387,12.8387,12.8387,0
EMG,20180327,12.8387,12.8387,12.8387,12.8387,0
EMG,20180328,12.8387,12.8387,12.8387,12.8387,0
EMG,20180329,12.8387,12.8387,12.8387,12.8387,0
EMG,20180330,12.8387,12.8387,12.8387,12.8387,0
EMG,20180402,12.8387,12.8387,12.8387,12.8387,0
EMG,20180403,12.8387,12.8387,12.8387,12.8387,0
EMG,20180404,12.8387,12.8387,12.8387,12.8387,0
EMG,20180405,12.8387,12.8387,12.8387,12.8387,0
EMG,20180406,12.8387,12.8387,12.8387,12.8387,0
EMG,20180409,12.8387,12.8387,12.8387,12.8387,0
EMG,20180410,12.8387,12.8387,12.8387,12.8387,0
EMG,20180411,12.8387,12.8387,12.8387,12.8387,0
EMG,20180412,12.8387,12.8387,12.8387,12.8387,0
EMG,20180413,12.8387,12.8387,12.8387,12.8387,0
EMG,20180416,12.8387,12.8387,12.8387,12.8387,0
EMG,20180417,12.8387,12.8387,12.8387,12.8387,0
EMG,20180418,12.8387,12.8387,12.8387,12.8387,0
EMG,20180419,12.8387,12.8387,12.8387,12.8387,0
EMG,20180420,12.8387,12.8387,12.8387,12.8387,0
EMG,20180423,12.8387,12.8387,12.8387,12.8387,0
EMG,20180424,12.8387,12.8387,12.8387,12.8387,0
EMG,20180426,12.8387,12.8387,12.8387,12.8387,0
EMG,20180427,12.8387,12.8387,12.8387,12.8387,0
EMG,20180502,12.8387,12.8387,12.8387,12.8387,0
EMG,20180503,12.8387,12.8387,12.8387,12.8387,0
EMG,20180504,12.8387,12.8387,12.8387,12.8387,0
EMG,20180507,12.8387,12.8387,12.8387,12.8387,0
EMG,20180508,12.8387,12.8387,12.8387,12.8387,0
EMG,20180509,12.8387,12.8387,12.8387,12.8387,0
EMG,20180510,12.8387,12.8387,12.8387,12.8387,0
EMG,20180511,12.8387,12.8387,12.8387,12.8387,0
EMG,20180514,12.8387,12.8387,12.8387,12.8387,0
EMG,20180515,12.8387,12.8387,12.8387,12.8387,0
EMG,20180516,12.8387,12.8387,12.8387,12.8387,0
EMG,20180517,12.8387,12.8387,12.8387,12.8387,0
EMG,20180518,12.8387,12.8387,12.8387,12.8387,0
EMG,20180521,12.8387,12.8387,12.8387,12.8387,0
EMG,20180522,12.8387,12.8387,12.8387,12.8387,0
EMG,20180523,12.8387,12.8387,12.8387,12.8387,0
EMG,20180524,12.8387,12.8387,12.8387,12.8387,0
EMG,20180525,12.8387,12.8387,12.8387,12.8387,0
EMG,20180528,12.8387,12.8387,12.8387,12.8387,0
EMG,20180529,12.8387,12.8387,12.8387,12.8387,0
EMG,20180530,12.8387,12.8387,12.8387,12.8387,0
EMG,20180531,12.8387,12.8387,12.8387,12.8387,0
EMG,20180601,12.8387,12.8387,12.8387,12.8387,0
EMG,20180604,12.8387,12.8387,12.8387,12.8387,0
EMG,20180605,12.8387,12.8387,12.8387,12.8387,0
EMG,20180606,12.8387,12.8387,12.8387,12.8387,0
EMG,20180607,12.8387,12.8387,12.8387,12.8387,0
EMG,20180608,12.8387,12.8387,12.8387,12.8387,0
EMG,20180611,12.8387,12.8387,12.8387,12.8387,0
EMG,20180612,12.8387,12.8387,12.8387,12.8387,0
EMG,20180613,12.8387,12.8387,12.8387,12.8387,0
EMG,20180614,12.8387,12.8387,12.8387,12.8387,0
EMG,20180615,12.8387,12.8387,12.8387,12.8387,0
EMG,20180618,12.8387,12.8387,12.8387,12.8387,0
EMG,20180619,12.8387,12.8387,12.8387,12.8387,0
EMG,20180620,12.8387,12.8387,12.8387,12.8387,0
EMG,20180621,12.8387,12.8387,12.8387,12.8387,0
EMG,20180622,12.8387,12.8387,12.8387,12.8387,0
EMG,20180625,12.8387,12.8387,12.8387,12.8387,0
EMG,20180626,12.8387,12.8387,12.8387,12.8387,0
EMG,20180627,12.8387,12.8387,12.8387,12.8387,0
EMG,20180628,12.8387,12.8387,12.8387,12.8387,0
EMG,20180629,12.8387,12.8387,12.8387,12.8387,0
EMG,20180702,12.8387,12.8387,12.8387,12.8387,0
EMG,20180703,12.8387,12.8387,12.8387,12.8387,0
EMG,20180704,12.8387,12.8387,12.8387,12.8387,0
EMG,20180705,12.8387,12.8387,12.8387,12.8387,0
EMG,20180706,12.8387,12.8387,12.8387,12.8387,0
EMG,20180709,12.8387,12.8387,12.8387,12.8387,0
EMG,20180710,12.8387,12.8387,12.8387,12.8387,0
EMG,20180711,12.8387,12.8387,12.8387,12.8387,0
EMG,20180712,12.8387,12.8387,12.8387,12.8387,0
EMG,20180713,12.8387,12.8387,12.8387,12.8387,0
EMG,20180716,12.8387,12.8387,12.8387,12.8387,0
EMG,20180717,12.8387,12.8387,12.8387,12.8387,0
EMG,20180718,12.8387,12.8387,12.8387,12.8387,0
EMG,20180719,12.8387,12.8387,12.8387,12.8387,0
EMG,20180720,12.8387,12.8387,12.8387,12.8387,0
EMG,20180723,12.8387,12.8387,12.8387,12.8387,0
EMG,20180724,12.8387,12.8387,12.8387,12.8387,0
EMG,20180725,12.8387,12.8387,12.8387,12.8387,0
EMG,20180726,12.8387,12.8387,12.8387,12.8387,0
EMG,20180727,12.8387,12.8387,12.8387,12.8387,0
EMG,20180730,12.8387,12.8387,12.8387,12.8387,0
EMG,20180731,12.8387,12.8387,12.8387,12.8387,0
EMG,20180801,12.8387,12.8387,12.8387,12.8387,0
EMG,20180802,12.8387,12.8387,12.8387,12.8387,0
EMG,20180803,12.8387,12.8387,12.8387,12.8387,0
EMG,20180806,12.8387,12.8387,12.8387,12.8387,0
EMG,20180807,12.8387,12.8387,12.8387,12.8387,0
EMG,20180808,12.8387,12.8387,12.8387,12.8387,0
EMG,20180809,12.8387,12.8387,12.8387,12.8387,0
EMG,20180810,12.8387,12.8387,12.8387,12.8387,0
EMG,20180813,12.8387,12.8387,12.8387,12.8387,0
EMG,20180814,12.8387,12.8387,12.8387,12.8387,0
EMG,20180815,12.8387,12.8387,12.8387,12.8387,0
EMG,20180816,12.8387,12.8387,12.8387,12.8387,0
EMG,20180817,12.8387,12.8387,12.8387,12.8387,0
EMG,20180820,12.8387,12.8387,12.8387,12.8387,0
EMG,20180821,12.8387,12.8387,12.8387,12.8387,0
EMG,20180822,12.8387,12.8387,12.8387,12.8387,0
EMG,20180823,12.8387,12.8387,12.8387,12.8387,0
EMG,20180824,12.8387,12.8387,12.8387,12.8387,0
EMG,20180827,12.8387,12.8387,12.8387,12.8387,0
EMG,20180828,12.8387,12.8387,12.8387,12.8387,0
EMG,20180829,12.8387,12.8387,12.8387,12.8387,0
EMG,20180830,12.8387,12.8387,12.8387,12.8387,0
EMG,20180831,12.8387,12.8387,12.8387,12.8387,0
EMG,20180904,12.8387,12.8387,12.8387,12.8387,0
EMG,20180905,12.8387,12.8387,12.8387,12.8387,0
EMG,20180906,12.8387,12.8387,12.8387,12.8387,0
EMG,20180907,12.8387,12.8387,12.8387,12.8387,0
EMG,20180910,12.8387,12.8387,12.8387,12.8387,0
EMG,20180911,12.8387,12.8387,12.8387,12.8387,0
EMG,20180912,12.8387,12.8387,12.8387,12.8387,0
EMG,20180913,12.8387,12.8387,12.8387,12.8387,0
EMG,20180914,12.8387,12.8387,12.8387,12.8387,0
EMG,20180917,12.8387,12.8387,12.8387,12.8387,0
EMG,20180918,12.8387,12.8387,12.8387,12.8387,0
EMG,20180919,12.8387,12.8387,12.8387,12.8387,0
EMG,20180920,12.8387,12.8387,12.8387,12.8387,0
EMG,20180921,12.8387,12.8387,12.8387,12.8387,0
EMG,20180924,12.8387,12.8387,12.8387,12.8387,0
EMG,20180925,12.8387,12.8387,12.8387,12.8387,0
EMG,20180926,12.8387,12.8387,12.8387,12.8387,0
EMG,20180927,12.8387,12.8387,12.8387,12.8387,0
EMG,20180928,12.8387,12.8387,12.8387,12.8387,0
EMG,20181001,12.8387,12.8387,12.8387,12.8387,0
EMG,20181002,12.8387,12.8387,12.8387,12.8387,0
EMG,20181003,12.8387,12.8387,12.8387,12.8387,0
EMG,20181004,12.8387,12.8387,12.8387,12.8387,0
EMG,20181005,12.8387,12.8387,12.8387,12.8387,0
EMG,20181008,12.8387,12.8387,12.8387,12.8387,0
EMG,20181009,12.8387,12.8387,12.8387,12.8387,0
EMG,20181010,12.8387,12.8387,12.8387,12.8387,0
EMG,20181011,12.8387,12.8387,12.8387,12.8387,0
EMG,20181012,12.8387,12.8387,12.8387,12.8387,0
EMG,20181015,12.8387,12.8387,12.8387,12.8387,0
EMG,20181016,12.8387,12.8387,12.8387,12.8387,0
EMG,20181017,12.8387,12.8387,12.8387,12.8387,0
EMG,20181018,12.8387,12.8387,12.8387,12.8387,0
EMG,20181019,12.8387,12.8387,12.8387,12.8387,0
EMG,20181022,12.8387,12.8387,12.8387,12.8387,0
EMG,20181023,12.8387,12.8387,12.8387,12.8387,0
EMG,20181024,12.8387,12.8387,12.8387,12.8387,0
EMG,20181025,12.8387,12.8387,12.8387,12.8387,0
EMG,20181026,12.8387,12.8387,12.8387,12.8387,0
EMG,20181029,12.8387,12.8387,12.8387,12.8387,0
EMG,20181030,12.8387,12.8387,12.8387,12.8387,0
EMG,20181031,12.8387,12.8387,12.8387,12.8387,0
EMG,20181101,12.8387,12.8387,12.8387,12.8387,0
EMG,20181102,12.8387,12.8387,12.8387,12.8387,0
EMG,20181105,12.8387,12.8387,12.8387,12.8387,0
EMG,20181106,12.8387,12.8387,12.8387,12.8387,0
EMG,20181107,12.8387,12.8387,12.8387,12.8387,0
EMG,20181108,12.8387,12.8387,12.8387,12.8387,0
EMG,20181109,12.8387,12.8387,12.8387,12.8387,0
EMG,20181112,12.8387,12.8387,12.8387,12.8387,0
EMG,20181113,12.8387,12.8387,12.8387,12.8387,0
EMG,20181114,12.8387,12.8387,12.8387,12.8387,0
EMG,20181115,12.8387,12.8387,12.8387,12.8387,0
EMG,20181116,12.8387,12.8387,12.8387,12.8387,0
EMG,20181119,12.8387,12.8387,12.8387,12.8387,0
EMG,20181120,12.8387,12.8387,12.8387,12.8387,0
EMG,20181121,17.9584,17.9584,17.9584,17.9584,200
EMG,20181122,17.9584,17.9584,17.9584,17.9584,0
EMG,20181123,20.6364,20.6364,20.6364,20.6364,100
EMG,20181126,20.6364,20.6364,20.6364,20.6364,0
EMG,20181127,20.6364,20.6364,20.6364,20.6364,0
EMG,20181128,20.6364,20.6364,20.6364,20.6364,0
EMG,20181129,20.6364,20.6364,20.6364,20.6364,0
EMG,20181130,20.6364,20.6364,20.6364,20.6364,0
EMG,20181203,20.6364,20.6364,20.6364,20.6364,0
EMG,20181204,20.6364,20.6364,20.6364,20.6364,0
EMG,20181205,20.6364,20.6364,20.6364,20.6364,0
EMG,20181206,20.6364,20.6364,20.6364,20.6364,0
EMG,20181207,20.6364,20.6364,20.6364,20.6364,0
EMG,20181210,20.6364,20.6364,20.6364,20.6364,0
EMG,20181211,20.6364,20.6364,20.6364,20.6364,0
EMG,20181212,20.6364,20.6364,20.6364,20.6364,0
EMG,20181213,20.6364,20.6364,20.6364,20.6364,0
EMG,20181214,20.6364,20.6364,20.6364,20.6364,0
EMG,20181217,20.6364,20.6364,20.6364,20.6364,0
EMG,20181218,20.6364,20.6364,20.6364,20.6364,0
EMG,20181219,20.6364,20.6364,20.6364,20.6364,0
EMG,20181220,20.6364,20.6364,20.6364,20.6364,0
EMG,20181221,20.6364,20.6364,20.6364,20.6364,0
EMG,20181224,20.6364,20.6364,20.6364,20.6364,0
EMG,20181225,20.6364,20.6364,20.6364,20.6364,0
EMG,20181226,20.6364,20.6364,20.6364,20.6364,0
EMG,20181227,20.6364,20.6364,20.6364,20.6364,0
EMG,20181228,20.6364,20.6364,20.6364,20.6364,0
EMG,20190102,20.6364,20.6364,20.6364,20.6364,0
EMG,20190103,20.6364,20.6364,20.6364,20.6364,0
EMG,20190104,20.6364,20.6364,20.6364,20.6364,0
EMG,20190107,20.6364,20.6364,20.6364,20.6364,0
EMG,20190108,20.6364,20.6364,20.6364,20.6364,0
EMG,20190109,20.6364,20.6364,20.6364,20.6364,0
EMG,20190110,20.6364,20.6364,20.6364,20.6364,0
EMG,20190111,20.6364,20.6364,20.6364,20.6364,0
EMG,20190114,20.6364,20.6364,20.6364,20.6364,0
EMG,20190115,20.6364,20.6364,20.6364,20.6364,0
EMG,20190116,20.6364,20.6364,20.6364,20.6364,0
EMG,20190117,20.6364,20.6364,20.6364,20.6364,0
EMG,20190118,20.6364,20.6364,20.6364,20.6364,0
EMG,20190121,20.6364,20.6364,20.6364,20.6364,0
EMG,20190122,20.6364,20.6364,20.6364,20.6364,0
EMG,20190123,20.6364,20.6364,20.6364,20.6364,0
EMG,20190124,20.6364,20.6364,20.6364,20.6364,0
EMG,20190125,20.6364,20.6364,20.6364,20.6364,0
EMG,20190128,20.6364,20.6364,20.6364,20.6364,0
EMG,20190129,20.6364,20.6364,20.6364,20.6364,0
EMG,20190130,20.6364,20.6364,20.6364,20.6364,0
EMG,20190131,20.6364,20.6364,20.6364,20.6364,0
EMG,20190201,20.6364,20.6364,20.6364,20.6364,0
EMG,20190211,20.6364,20.6364,20.6364,20.6364,0
EMG,20190212,20.6364,20.6364,20.6364,20.6364,0
EMG,20190213,20.6364,20.6364,20.6364,20.6364,0
EMG,20190214,20.6364,20.6364,20.6364,20.6364,0
EMG,20190215,20.6364,20.6364,20.6364,20.6364,0
EMG,20190218,20.6364,20.6364,20.6364,20.6364,0
EMG,20190219,20.6364,20.6364,20.6364,20.6364,0
EMG,20190220,20.6364,20.6364,20.6364,20.6364,0
EMG,20190221,20.6364,20.6364,20.6364,20.6364,0
EMG,20190222,20.6364,20.6364,20.6364,20.6364,0
EMG,20190225,20.6364,20.6364,20.6364,20.6364,0
EMG,20190226,20.6364,20.6364,20.6364,20.6364,0
EMG,20190227,20.6364,20.6364,20.6364,20.6364,0
EMG,20190228,20.6364,20.6364,20.6364,20.6364,0
EMG,20190301,20.6364,20.6364,20.6364,20.6364,0
EMG,20190304,20.6364,20.6364,20.6364,20.6364,0
EMG,20190305,20.6364,20.6364,20.6364,20.6364,0
EMG,20190306,20.6364,20.6364,20.6364,20.6364,0
EMG,20190307,20.6364,20.6364,20.6364,20.6364,0
EMG,20190308,20.6364,20.6364,20.6364,20.6364,0
EMG,20190311,20.6364,20.6364,20.6364,20.6364,0
EMG,20190312,20.6364,20.6364,20.6364,20.6364,0
EMG,20190313,20.6364,20.6364,20.6364,20.6364,0
EMG,20190314,20.6364,20.6364,20.6364,20.6364,0
EMG,20190315,20.6364,20.6364,20.6364,20.6364,0
EMG,20190318,20.6364,20.6364,20.6364,20.6364,0
EMG,20190319,20.6364,20.6364,20.6364,20.6364,0
EMG,20190320,20.6364,20.6364,20.6364,20.6364,0
EMG,20190321,20.6364,20.6364,20.6364,20.6364,0
EMG,20190322,20.6364,20.6364,20.6364,20.6364,0
EMG,20190325,20.6364,20.6364,20.6364,20.6364,0
EMG,20190326,20.6364,20.6364,20.6364,20.6364,0
EMG,20190327,20.6364,20.6364,20.6364,20.6364,0
EMG,20190328,20.6364,20.6364,20.6364,20.6364,0
EMG,20190329,20.6364,20.6364,20.6364,20.6364,0
EMG,20190401,20.6364,20.6364,20.6364,20.6364,0
EMG,20190402,20.6364,20.6364,20.6364,20.6364,0
EMG,20190403,20.6364,20.6364,20.6364,20.6364,0
EMG,20190404,20.6364,20.6364,20.6364,20.6364,0
EMG,20190405,20.6364,20.6364,20.6364,20.6364,0
EMG,20190408,20.6364,20.6364,20.6364,20.6364,0
EMG,20190409,20.6364,20.6364,20.6364,20.6364,0
EMG,20190410,20.6364,20.6364,20.6364,20.6364,0
EMG,20190411,20.6364,20.6364,20.6364,20.6364,0
EMG,20190412,20.6364,20.6364,20.6364,20.6364,0
EMG,20190416,20.6364,20.6364,20.6364,20.6364,0
EMG,20190417,20.6364,20.6364,20.6364,20.6364,0
EMG,20190418,20.6364,20.6364,20.6364,20.6364,0
EMG,20190419,20.6364,20.6364,20.6364,20.6364,0
EMG,20190422,20.6364,20.6364,20.6364,20.6364,0
EMG,20190423,20.6364,20.6364,20.6364,20.6364,0
EMG,20190424,20.6364,20.6364,20.6364,20.6364,0
EMG,20190425,20.6364,20.6364,20.6364,20.6364,0
EMG,20190426,20.6364,20.6364,20.6364,20.6364,0
EMG,20190502,20.6364,20.6364,20.6364,20.6364,0
EMG,20190503,20.6364,20.6364,20.6364,20.6364,0
EMG,20190506,20.6364,20.6364,20.6364,20.6364,0
EMG,20190507,20.6364,20.6364,20.6364,20.6364,0
EMG,20190508,20.6364,20.6364,20.6364,20.6364,0
EMG,20190509,20.6364,20.6364,20.6364,20.6364,0
EMG,20190510,20.6364,20.6364,20.6364,20.6364,0
EMG,20190513,20.6364,20.6364,20.6364,20.6364,0
EMG,20190514,20.6364,20.6364,20.6364,20.6364,0
EMG,20190515,20.6364,20.6364,20.6364,20.6364,0
EMG,20190516,20.6364,20.6364,20.6364,20.6364,0
EMG,20190517,20.6364,20.6364,20.6364,20.6364,0
EMG,20190520,20.6364,20.6364,20.6364,20.6364,0
EMG,20190521,20.6364,20.6364,20.6364,20.6364,0
EMG,20190522,20.6364,20.6364,20.6364,20.6364,0
EMG,20190523,20.6364,20.6364,20.6364,20.6364,0
EMG,20190524,20.6364,20.6364,20.6364,20.6364,0
EMG,20190527,20.6364,20.6364,20.6364,20.6364,0
EMG,20190528,20.6364,20.6364,20.6364,20.6364,0
EMG,20190529,20.6364,20.6364,20.6364,20.6364,0
EMG,20190530,20.6364,20.6364,20.6364,20.6364,0
EMG,20190531,20.6364,20.6364,20.6364,20.6364,0
EMG,20190603,20.6364,20.6364,20.6364,20.6364,0
EMG,20190604,20.6364,20.6364,20.6364,20.6364,0
EMG,20190605,20.6364,20.6364,20.6364,20.6364,0
EMG,20190606,20.6364,20.6364,20.6364,20.6364,0
EMG,20190607,20.6364,20.6364,20.6364,20.6364,0
EMG,20190610,20.6364,20.6364,20.6364,20.6364,0
EMG,20190611,20.6364,20.6364,20.6364,20.6364,0
EMG,20190612,20.6364,20.6364,20.6364,20.6364,0
EMG,20190613,20.6364,20.6364,20.6364,20.6364,0
EMG,20190614,20.6364,20.6364,20.6364,20.6364,0
EMG,20190617,20.6364,20.6364,20.6364,20.6364,0
EMG,20190618,20.6364,20.6364,20.6364,20.6364,0
EMG,20190619,20.6364,20.6364,20.6364,20.6364,0
EMG,20190620,20.6364,20.6364,20.6364,20.6364,0
EMG,20190621,20.6364,20.6364,20.6364,20.6364,0
EMG,20190624,20.6364,20.6364,20.6364,20.6364,0
EMG,20190625,20.6364,20.6364,20.6364,20.6364,0
EMG,20190626,20.6364,20.6364,20.6364,20.6364,0
EMG,20190627,20.6364,20.6364,20.6364,20.6364,0
EMG,20190628,20.6364,20.6364,20.6364,20.6364,0
EMG,20190701,20.6364,20.6364,20.6364,20.6364,0
EMG,20190702,20.6364,20.6364,20.6364,20.6364,0
EMG,20190703,20.6364,20.6364,20.6364,20.6364,0
EMG,20190704,20.6364,20.6364,20.6364,20.6364,0
EMG,20190705,20.6364,20.6364,20.6364,20.6364,0
EMG,20190708,20.6364,20.6364,20.6364,20.6364,0
EMG,20190709,20.6364,20.6364,20.6364,20.6364,0
EMG,20190710,20.6364,20.6364,20.6364,20.6364,0
EMG,20190711,20.6364,20.6364,20.6364,20.6364,0
EMG,20190712,20.6364,20.6364,20.6364,20.6364,0
EMG,20190715,20.6365,20.6365,20.6365,20.6365,0
EMG,20190716,20.6365,20.6365,20.6365,20.6365,0
EMG,20190717,20.6365,20.6365,20.6365,20.6365,0
EMG,20190718,20.6365,20.6365,20.6365,20.6365,0
EMG,20190719,20.6365,20.6365,20.6365,20.6365,0
EMG,20190722,20.6365,20.6365,20.6365,20.6365,0
EMG,20190723,20.6365,20.6365,20.6365,20.6365,0
EMG,20190724,20.6365,20.6365,20.6365,20.6365,0
EMG,20190725,20.6365,20.6365,20.6365,20.6365,0
EMG,20190726,20.6365,20.6365,20.6365,20.6365,0
EMG,20190729,20.6365,20.6365,20.6365,20.6365,0
EMG,20190730,20.6365,20.6365,20.6365,20.6365,0
EMG,20190731,20.6365,20.6365,20.6365,20.6365,0
EMG,20190801,20.6365,20.6365,20.6365,20.6365,0
EMG,20190802,20.6365,20.6365,20.6365,20.6365,0
EMG,20190805,20.6365,20.6365,20.6365,20.6365,0
EMG,20190806,20.6365,20.6365,20.6365,20.6365,0
EMG,20190807,20.6365,20.6365,20.6365,20.6365,0
EMG,20190808,20.6365,20.6365,20.6365,20.6365,0
EMG,20190809,20.6365,20.6365,20.6365,20.6365,0
EMG,20190812,20.6365,20.6365,20.6365,20.6365,0
EMG,20190813,20.6365,20.6365,20.6365,20.6365,0
EMG,20190814,20.6365,20.6365,20.6365,20.6365,0
EMG,20190815,20.6365,20.6365,20.6365,20.6365,0
EMG,20190816,20.6365,20.6365,20.6365,20.6365,0
EMG,20190819,20.6365,20.6365,20.6365,20.6365,0
EMG,20190820,20.6365,20.6365,20.6365,20.6365,0
EMG,20190821,20.6365,20.6365,20.6365,20.6365,0
EMG,20190822,20.6365,20.6365,20.6365,20.6365,0
EMG,20190823,20.6365,20.6365,20.6365,20.6365,0
EMG,20190826,20.6365,20.6365,20.6365,20.6365,0
EMG,20190827,20.6365,20.6365,20.6365,20.6365,0
EMG,20190828,20.6365,20.6365,20.6365,20.6365,0
EMG,20190829,20.6365,20.6365,20.6365,20.6365,0
EMG,20190830,20.6365,20.6365,20.6365,20.6365,0
EMG,20190903,20.6365,20.6365,20.6365,20.6365,0
EMG,20190904,20.6365,20.6365,20.6365,20.6365,0
EMG,20190905,20.6365,20.6365,20.6365,20.6365,0
EMG,20190906,20.6365,20.6365,20.6365,20.6365,0
EMG,20190909,20.6365,20.6365,20.6365,20.6365,0
EMG,20190910,20.6365,20.6365,20.6365,20.6365,0
EMG,20190911,20.6365,20.6365,20.6365,20.6365,0
EMG,20190912,20.6365,20.6365,20.6365,20.6365,0
EMG,20190913,20.6365,20.6365,20.6365,20.6365,0
EMG,20190916,20.6365,20.6365,20.6365,20.6365,0
EMG,20190917,20.6365,20.6365,20.6365,20.6365,0
EMG,20190918,20.6365,20.6365,20.6365,20.6365,0
EMG,20190919,20.6365,20.6365,20.6365,20.6365,0
EMG,20190920,20.6365,20.6365,20.6365,20.6365,0
EMG,20190923,20.6365,20.6365,20.6365,20.6365,0
EMG,20190924,20.6365,20.6365,20.6365,20.6365,0
EMG,20190925,20.6365,20.6365,20.6365,20.6365,0
EMG,20190926,20.6365,20.6365,20.6365,20.6365,0
EMG,20190927,20.6365,20.6365,20.6365,20.6365,0
EMG,20190930,20.6365,20.6365,20.6365,20.6365,0
EMG,20191001,20.6365,20.6365,20.6365,20.6365,0
EMG,20191002,20.6365,20.6365,20.6365,20.6365,0
EMG,20191003,20.6365,20.6365,20.6365,20.6365,0
EMG,20191004,20.6365,20.6365,20.6365,20.6365,0
EMG,20191007,20.6365,20.6365,20.6365,20.6365,0
EMG,20191008,20.6365,20.6365,20.6365,20.6365,0
EMG,20191009,20.6365,20.6365,20.6365,20.6365,0
EMG,20191010,20.6365,20.6365,20.6365,20.6365,0
EMG,20191011,20.6365,20.6365,20.6365,20.6365,0
EMG,20191014,20.6365,20.6365,20.6365,20.6365,0
EMG,20191015,20.6365,20.6365,20.6365,20.6365,0
EMG,20191016,20.6365,20.6365,20.6365,20.6365,0
EMG,20191017,20.6365,20.6365,20.6365,20.6365,0
EMG,20191018,20.6365,20.6365,20.6365,20.6365,0
EMG,20191021,20.6365,20.6365,20.6365,20.6365,0
EMG,20191022,20.6365,20.6365,20.6365,20.6365,0
EMG,20191023,20.6365,20.6365,20.6365,20.6365,0
EMG,20191024,20.6365,20.6365,20.6365,20.6365,0
EMG,20191025,20.6365,20.6365,20.6365,20.6365,0
EMG,20191028,20.6365,20.6365,20.6365,20.6365,0
EMG,20191029,20.6365,20.6365,20.6365,20.6365,0
EMG,20191030,20.6365,20.6365,20.6365,20.6365,0
EMG,20191031,20.6365,20.6365,20.6365,20.6365,0
EMG,20191101,20.6365,20.6365,20.6365,20.6365,0
EMG,20191104,20.6365,20.6365,20.6365,20.6365,0
EMG,20191105,20.6365,20.6365,20.6365,20.6365,0
EMG,20191106,20.6365,20.6365,20.6365,20.6365,0
EMG,20191107,20.6365,20.6365,20.6365,20.6365,0
EMG,20191108,20.6365,20.6365,20.6365,20.6365,0
EMG,20191111,20.6365,20.6365,20.6365,20.6365,0
EMG,20191112,20.6365,20.6365,20.6365,20.6365,0
EMG,20191113,20.6365,20.6365,20.6365,20.6365,0
EMG,20191114,20.6365,20.6365,20.6365,20.6365,0
EMG,20191115,20.6365,20.6365,20.6365,20.6365,0
EMG,20191118,20.6365,20.6365,20.6365,20.6365,0
EMG,20191119,20.6365,20.6365,20.6365,20.6365,0
EMG,20191120,20.6365,20.6365,20.6365,20.6365,0
EMG,20191121,20.6365,20.6365,20.6365,20.6365,0
EMG,20191122,20.6365,20.6365,20.6365,20.6365,0
EMG,20191125,20.6365,20.6365,20.6365,20.6365,0
EMG,20191126,20.6365,20.6365,20.6365,20.6365,0
EMG,20191127,20.6365,20.6365,20.6365,20.6365,0
EMG,20191128,20.6365,20.6365,20.6365,20.6365,0
EMG,20191129,20.6365,20.6365,20.6365,20.6365,0
EMG,20191202,20.6365,20.6365,20.6365,20.6365,0
EMG,20191203,20.6365,20.6365,20.6365,20.6365,0
EMG,20191204,20.6365,20.6365,20.6365,20.6365,0
EMG,20191205,20.6365,20.6365,20.6365,20.6365,0
EMG,20191206,20.6365,20.6365,20.6365,20.6365,0
EMG,20191209,20.6365,20.6365,20.6365,20.6365,0
EMG,20191210,20.6365,20.6365,20.6365,20.6365,0
EMG,20191211,20.6365,20.6365,20.6365,20.6365,0
EMG,20191212,20.6365,20.6365,20.6365,20.6365,0
EMG,20191213,20.6365,20.6365,20.6365,20.6365,0
EMG,20191216,20.6365,20.6365,20.6365,20.6365,0
EMG,20191217,20.6365,20.6365,20.6365,20.6365,0
EMG,20191218,20.6365,20.6365,20.6365,20.6365,0
EMG,20191219,20.6365,20.6365,20.6365,20.6365,0
EMG,20191220,20.6365,20.6365,20.6365,20.6365,0
EMG,20191223,20.6365,20.6365,20.6365,20.6365,0
EMG,20191224,20.6365,20.6365,20.6365,20.6365,0
EMG,20191225,20.6365,20.6365,20.6365,20.6365,0
EMG,20191226,20.6365,20.6365,20.6365,20.6365,0
EMG,20191227,20.6365,20.6365,20.6365,20.6365,0
EMG,20191230,20.6365,20.6365,20.6365,20.6365,0
EMG,20191231,20.6365,20.6365,20.6365,20.6365,0
EMG,20200102,20.6365,20.6365,20.6365,20.6365,0
EMG,20200103,20.6365,20.6365,20.6365,20.6365,0
EMG,20200106,20.6365,20.6365,20.6365,20.6365,0
EMG,20200107,20.6365,20.6365,20.6365,20.6365,0
EMG,20200108,20.6365,20.6365,20.6365,20.6365,0
EMG,20200109,20.6365,20.6365,20.6365,20.6365,0
EMG,20200110,20.6365,20.6365,20.6365,20.6365,0
EMG,20200113,20.6365,20.6365,20.6365,20.6365,0
EMG,20200114,20.6365,20.6365,20.6365,20.6365,0
EMG,20200115,20.6365,20.6365,20.6365,20.6365,0
EMG,20200116,20.6365,20.6365,20.6365,20.6365,0
EMG,20200117,20.6365,20.6365,20.6365,20.6365,0
EMG,20200120,20.6365,20.6365,20.6365,20.6365,0
EMG,20200121,20.6365,20.6365,20.6365,20.6365,0
EMG,20200122,20.6365,20.6365,20.6365,20.6365,0
EMG,20200130,20.6365,20.6365,20.6365,20.6365,0
EMG,20200131,20.6365,20.6365,20.6365,20.6365,0
EMG,20200203,20.6365,20.6365,20.6365,20.6365,0
EMG,20200204,20.6365,20.6365,20.6365,20.6365,0
EMG,20200205,20.6365,20.6365,20.6365,20.6365,0
EMG,20200206,20.6365,20.6365,20.6365,20.6365,0
EMG,20200207,20.6365,20.6365,20.6365,20.6365,0
EMG,20200210,20.6365,20.6365,20.6365,20.6365,0
EMG,20200211,20.6365,20.6365,20.6365,20.6365,0
EMG,20200212,20.6365,20.6365,20.6365,20.6365,0
EMG,20200213,20.6365,20.6365,20.6365,20.6365,0
EMG,20200214,20.6365,20.6365,20.6365,20.6365,0
EMG,20200217,20.6365,20.6365,20.6365,20.6365,0
EMG,20200218,20.6365,20.6365,20.6365,20.6365,0
EMG,20200219,20.6365,20.6365,20.6365,20.6365,0
EMG,20200220,20.6365,20.6365,20.6365,20.6365,0
EMG,20200221,20.6365,20.6365,20.6365,20.6365,0
EMG,20200224,20.6365,20.6365,20.6365,20.6365,0
EMG,20200225,20.6365,20.6365,20.6365,20.6365,0
EMG,20200226,20.6365,20.6365,20.6365,20.6365,0
EMG,20200227,20.6365,20.6365,20.6365,20.6365,0
EMG,20200228,20.6365,20.6365,20.6365,20.6365,0
EMG,20200302,20.6365,20.6365,20.6365,20.6365,0
EMG,20200303,20.6365,20.6365,20.6365,20.6365,0
EMG,20200304,20.6365,20.6365,20.6365,20.6365,0
EMG,20200305,20.6365,20.6365,20.6365,20.6365,0
EMG,20200306,20.6365,20.6365,20.6365,20.6365,0
EMG,20200309,20.6365,20.6365,20.6365,20.6365,0
EMG,20200310,20.6365,20.6365,20.6365,20.6365,0
EMG,20200311,20.6365,20.6365,20.6365,20.6365,0
EMG,20200312,20.6365,20.6365,20.6365,20.6365,0
EMG,20200313,20.6365,20.6365,20.6365,20.6365,0
EMG,20200316,20.6365,20.6365,20.6365,20.6365,0
EMG,20200317,20.6365,20.6365,20.6365,20.6365,0
EMG,20200318,20.6365,20.6365,20.6365,20.6365,0
EMG,20200319,20.6365,20.6365,20.6365,20.6365,0
EMG,20200320,20.6365,20.6365,20.6365,20.6365,0
EMG,20200323,20.6365,20.6365,20.6365,20.6365,0
EMG,20200324,20.6365,20.6365,20.6365,20.6365,0
EMG,20200325,20.6365,20.6365,20.6365,20.6365,0
EMG,20200326,20.6365,20.6365,20.6365,20.6365,0
EMG,20200327,20.6365,20.6365,20.6365,20.6365,0
EMG,20200330,20.6365,20.6365,20.6365,20.6365,0
EMG,20200331,20.6365,20.6365,20.6365,20.6365,0
EMG,20200401,20.6365,20.6365,20.6365,20.6365,0
EMG,20200403,20.6365,20.6365,20.6365,20.6365,0
EMG,20200406,20.6365,20.6365,20.6365,20.6365,0
EMG,20200407,20.6365,20.6365,20.6365,20.6365,0
EMG,20200408,20.6365,20.6365,20.6365,20.6365,0
EMG,20200409,20.6365,20.6365,20.6365,20.6365,0
EMG,20200410,20.6365,20.6365,20.6365,20.6365,0
EMG,20200413,20.6365,20.6365,20.6365,20.6365,0
EMG,20200414,20.6365,20.6365,20.6365,20.6365,0
EMG,20200415,20.6365,20.6365,20.6365,20.6365,0
EMG,20200416,20.6365,20.6365,20.6365,20.6365,0
EMG,20200417,20.6365,20.6365,20.6365,20.6365,0
EMG,20200420,20.6365,20.6365,20.6365,20.6365,0
EMG,20200421,20.6365,20.6365,20.6365,20.6365,0
EMG,20200422,20.6365,20.6365,20.6365,20.6365,0
EMG,20200423,20.6365,20.6365,20.6365,20.6365,0
EMG,20200424,20.6365,20.6365,20.6365,20.6365,0
EMG,20200427,20.6365,20.6365,20.6365,20.6365,0
EMG,20200428,20.6365,20.6365,20.6365,20.6365,0
EMG,20200429,20.6365,20.6365,20.6365,20.6365,0
EMG,20200504,20.6365,20.6365,20.6365,20.6365,0
EMG,20200505,20.6365,20.6365,20.6365,20.6365,0
EMG,20200506,20.6365,20.6365,20.6365,20.6365,0
EMG,20200507,20.6365,20.6365,20.6365,20.6365,0
EMG,20200508,20.6365,20.6365,20.6365,20.6365,0
EMG,20200511,20.6365,20.6365,20.6365,20.6365,0
EMG,20200512,20.6365,20.6365,20.6365,20.6365,0
EMG,20200513,20.6365,20.6365,20.6365,20.6365,0
EMG,20200514,20.6365,20.6365,20.6365,20.6365,0
EMG,20200515,20.6365,20.6365,20.6365,20.6365,0
EMG,20200518,20.6365,20.6365,20.6365,20.6365,0
EMG,20200519,20.6365,20.6365,20.6365,20.6365,0
EMG,20200520,20.6365,20.6365,20.6365,20.6365,0
EMG,20200521,20.6365,20.6365,20.6365,20.6365,0
EMG,20200522,20.6365,20.6365,20.6365,20.6365,0
EMG,20200525,20.6365,20.6365,20.6365,20.6365,0
EMG,20200526,20.6365,20.6365,20.6365,20.6365,0
EMG,20200527,20.6365,20.6365,20.6365,20.6365,0
EMG,20200528,20.6365,20.6365,20.6365,20.6365,0
EMG,20200529,16.7097,16.7097,16.7097,16.7097,1600
EMG,20200601,16.7097,16.7097,16.7097,16.7097,70
EMG,20200602,16.7097,16.7097,16.7097,16.7097,0
EMG,20200603,16.7097,16.7097,16.7097,16.7097,0
EMG,20200604,16.7097,16.7097,16.7097,16.7097,0
EMG,20200605,16.7097,16.7097,16.7097,16.7097,0
EMG,20200608,16.7097,16.7097,16.7097,16.7097,0
EMG,20200609,16.7097,16.7097,16.7097,16.7097,0
EMG,20200610,16.7097,16.7097,16.7097,16.7097,0
EMG,20200611,16.7097,16.7097,16.7097,16.7097,0
EMG,20200612,16.7097,16.7097,16.7097,16.7097,0
EMG,20200615,16.7097,16.7097,16.7097,16.7097,0
EMG,20200616,16.7097,16.7097,16.7097,16.7097,0
EMG,20200617,16.7097,16.7097,16.7097,16.7097,0
EMG,20200618,16.7097,16.7097,16.7097,16.7097,0
EMG,20200619,16.7097,16.7097,16.7097,16.7097,0
EMG,20200622,16.7097,16.7097,16.7097,16.7097,0
EMG,20200623,16.7097,16.7097,16.7097,16.7097,0
EMG,20200624,16.7097,16.7097,16.7097,16.7097,0
EMG,20200625,16.7097,16.7097,16.7097,16.7097,0
EMG,20200626,16.7097,16.7097,16.7097,16.7097,0
EMG,20200629,16.7097,16.7097,16.7097,16.7097,0
EMG,20200630,16.7097,16.7097,16.7097,16.7097,0
EMG,20200701,16.7097,16.7097,16.7097,16.7097,0
EMG,20200702,16.7097,16.7097,16.7097,16.7097,0
EMG,20200703,16.7097,16.7097,16.7097,16.7097,0
EMG,20200706,16.7097,16.7097,16.7097,16.7097,0
EMG,20200707,16.7097,16.7097,16.7097,16.7097,0
EMG,20200708,16.7097,16.7097,16.7097,16.7097,0
EMG,20200709,16.7097,16.7097,16.7097,16.7097,0
EMG,20200710,16.7097,16.7097,16.7097,16.7097,0
EMG,20200713,16.7097,16.7097,16.7097,16.7097,0
EMG,20200714,16.7097,16.7097,16.7097,16.7097,0
EMG,20200715,16.7097,16.7097,16.7097,16.7097,0
EMG,20200716,16.7097,16.7097,16.7097,16.7097,0
EMG,20200717,16.7097,16.7097,16.7097,16.7097,0
EMG,20200720,16.7097,16.7097,16.7097,16.7097,0
EMG,20200721,16.7097,16.7097,16.7097,16.7097,0
EMG,20200722,16.7097,16.7097,16.7097,16.7097,0
EMG,20200723,16.7097,16.7097,16.7097,16.7097,0
EMG,20200724,16.7097,16.7097,16.7097,16.7097,0
EMG,20200727,16.7097,16.7097,16.7097,16.7097,0
EMG,20200728,16.7097,16.7097,16.7097,16.7097,0
EMG,20200729,16.7097,16.7097,16.7097,16.7097,0
EMG,20200730,16.7097,16.7097,16.7097,16.7097,0
EMG,20200731,16.7097,16.7097,16.7097,16.7097,0
EMG,20200803,16.7097,16.7097,16.7097,16.7097,0
EMG,20200804,16.7097,16.7097,16.7097,16.7097,0
EMG,20200805,16.7097,16.7097,16.7097,16.7097,0
EMG,20200806,16.7097,16.7097,16.7097,16.7097,0
EMG,20200807,16.7097,16.7097,16.7097,16.7097,0
EMG,20200810,16.7097,16.7097,16.7097,16.7097,0
EMG,20200811,16.7097,16.7097,16.7097,16.7097,0
EMG,20200812,16.7097,16.7097,16.7097,16.7097,0
EMG,20200813,16.7097,16.7097,16.7097,16.7097,0
EMG,20200814,16.7097,16.7097,16.7097,16.7097,0
EMG,20200817,16.7097,16.7097,16.7097,16.7097,0
EMG,20200818,16.7097,16.7097,16.7097,16.7097,0
EMG,20200819,16.7097,16.7097,16.7097,16.7097,0
EMG,20200820,16.7097,16.7097,16.7097,16.7097,0
EMG,20200821,16.7097,16.7097,16.7097,16.7097,0
EMG,20200824,16.7097,16.7097,16.7097,16.7097,0
EMG,20200825,16.7097,16.7097,16.7097,16.7097,0
EMG,20200826,16.7097,16.7097,16.7097,16.7097,0
EMG,20200827,16.7097,16.7097,16.7097,16.7097,0
EMG,20200828,16.7097,16.7097,16.7097,16.7097,0
EMG,20200831,16.7097,16.7097,16.7097,16.7097,0
EMG,20200901,16.7097,16.7097,16.7097,16.7097,0
EMG,20200903,16.7097,16.7097,16.7097,16.7097,0
EMG,20200904,16.7097,16.7097,16.7097,16.7097,0
EMG,20200907,16.7097,16.7097,16.7097,16.7097,0
EMG,20200908,16.7097,16.7097,16.7097,16.7097,0
EMG,20200909,16.7097,16.7097,16.7097,16.7097,0
EMG,20200910,16.7097,16.7097,16.7097,16.7097,0
EMG,20200911,16.7097,16.7097,16.7097,16.7097,0
EMG,20200914,16.7097,16.7097,16.7097,16.7097,0
EMG,20200915,16.7097,16.7097,16.7097,16.7097,0
EMG,20200916,16.7097,16.7097,16.7097,16.7097,0
EMG,20200917,16.7097,16.7097,16.7097,16.7097,0
EMG,20200918,16.7097,16.7097,16.7097,16.7097,0
EMG,20200921,16.7097,16.7097,16.7097,16.7097,0
EMG,20200922,16.7097,16.7097,16.7097,16.7097,0
EMG,20200923,16.7097,16.7097,16.7097,16.7097,0
EMG,20200924,16.7097,16.7097,16.7097,16.7097,0
EMG,20200925,16.7097,16.7097,16.7097,16.7097,0
EMG,20200928,16.7097,16.7097,16.7097,16.7097,0
EMG,20200929,16.7097,16.7097,16.7097,16.7097,0
EMG,20200930,16.7097,16.7097,16.7097,16.7097,0
EMG,20201001,16.7097,16.7097,16.7097,16.7097,0
EMG,20201002,16.7097,16.7097,16.7097,16.7097,0
EMG,20201005,16.7097,16.7097,16.7097,16.7097,0
EMG,20201006,16.7097,16.7097,16.7097,16.7097,0
EMG,20201007,16.7097,16.7097,16.7097,16.7097,0
EMG,20201008,16.7097,16.7097,16.7097,16.7097,0
EMG,20201009,16.7097,16.7097,16.7097,16.7097,0
EMG,20201012,16.7097,16.7097,16.7097,16.7097,0
EMG,20201013,16.7097,16.7097,16.7097,16.7097,0
EMG,20201014,16.7097,16.7097,16.7097,16.7097,0
EMG,20201015,16.7097,16.7097,16.7097,16.7097,0
EMG,20201016,16.7097,16.7097,16.7097,16.7097,0
EMG,20201019,16.7097,16.7097,16.7097,16.7097,0
EMG,20201020,16.7097,16.7097,16.7097,16.7097,0
EMG,20201021,16.7097,16.7097,16.7097,16.7097,0
EMG,20201022,16.7097,16.7097,16.7097,16.7097,0
EMG,20201023,16.7097,16.7097,16.7097,16.7097,0
EMG,20201026,16.7097,16.7097,16.7097,16.7097,0
EMG,20201027,16.7097,16.7097,16.7097,16.7097,0
EMG,20201028,16.7097,16.7097,16.7097,16.7097,0
EMG,20201029,16.7097,16.7097,16.7097,16.7097,0
EMG,20201030,16.7097,16.7097,16.7097,16.7097,0
EMG,20201102,16.7097,16.7097,16.7097,16.7097,0
EMG,20201103,16.7097,16.7097,16.7097,16.7097,0
EMG,20201104,16.7097,16.7097,16.7097,16.7097,0
EMG,20201105,16.7097,16.7097,16.7097,16.7097,0
EMG,20201106,16.7097,16.7097,16.7097,16.7097,0
EMG,20201109,16.7097,16.7097,16.7097,16.7097,0
EMG,20201110,16.7097,16.7097,16.7097,16.7097,0
EMG,20201111,16.7097,16.7097,16.7097,16.7097,0
EMG,20201112,16.7097,16.7097,16.7097,16.7097,0
EMG,20201113,16.7097,16.7097,16.7097,16.7097,0
EMG,20201116,16.7097,16.7097,16.7097,16.7097,0
EMG,20201117,16.7097,16.7097,16.7097,16.7097,0
EMG,20201118,16.7097,16.7097,16.7097,16.7097,0
EMG,20201119,16.7097,16.7097,16.7097,16.7097,0
EMG,20201120,16.7097,16.7097,16.7097,16.7097,0
EMG,20201123,16.7097,16.7097,16.7097,16.7097,0
EMG,20201124,16.7097,16.7097,16.7097,16.7097,0
EMG,20201125,16.7097,16.7097,16.7097,16.7097,0
EMG,20201126,16.7097,16.7097,16.7097,16.7097,0
EMG,20201127,16.7097,16.7097,16.7097,16.7097,0
EMG,20201130,16.7097,16.7097,16.7097,16.7097,0
EMG,20201201,16.7097,16.7097,16.7097,16.7097,0
EMG,20201202,16.7097,16.7097,16.7097,16.7097,0
EMG,20201203,16.7097,16.7097,16.7097,16.7097,0
EMG,20201204,16.7097,16.7097,16.7097,16.7097,0
EMG,20201207,16.7097,16.7097,16.7097,16.7097,0
EMG,20201208,16.7097,16.7097,16.7097,16.7097,0
EMG,20201209,16.7097,16.7097,16.7097,16.7097,0
EMG,20201210,16.7097,16.7097,16.7097,16.7097,0
EMG,20201211,16.7097,16.7097,16.7097,16.7097,0
EMG,20201214,16.7097,16.7097,16.7097,16.7097,0
EMG,20201215,16.7097,16.7097,16.7097,16.7097,0
EMG,20201216,16.7097,16.7097,16.7097,16.7097,0
EMG,20201217,16.7097,16.7097,16.7097,16.7097,0
EMG,20201218,16.7097,16.7097,16.7097,16.7097,0
EMG,20201221,16.7097,16.7097,16.7097,16.7097,0
EMG,20201222,16.7097,16.7097,16.7097,16.7097,0
EMG,20201223,16.7097,16.7097,16.7097,16.7097,0
EMG,20201224,16.7097,16.7097,16.7097,16.7097,0
EMG,20201225,16.7097,16.7097,16.7097,16.7097,0
EMG,20201228,16.7097,16.7097,16.7097,16.7097,0
EMG,20201229,16.7097,16.7097,16.7097,16.7097,0
EMG,20201230,16.7097,16.7097,16.7097,16.7097,0
EMG,20201231,16.7097,16.7097,16.7097,16.7097,0
EMG,20210104,16.7097,16.7097,16.7097,16.7097,0
EMG,20210105,16.7097,16.7097,16.7097,16.7097,0
EMG,20210106,16.7097,16.7097,16.7097,16.7097,0
EMG,20210107,16.7097,16.7097,16.7097,16.7097,0
EMG,20210108,16.7097,16.7097,16.7097,16.7097,0
EMG,20210111,16.7097,16.7097,16.7097,16.7097,0
EMG,20210112,16.7097,16.7097,16.7097,16.7097,0
EMG,20210113,16.7097,16.7097,16.7097,16.7097,0
EMG,20210114,16.7097,16.7097,16.7097,16.7097,0
EMG,20210115,16.7097,16.7097,16.7097,16.7097,0
EMG,20210118,16.7097,16.7097,16.7097,16.7097,0
EMG,20210119,16.7097,16.7097,16.7097,16.7097,0
EMG,20210120,16.7097,16.7097,16.7097,16.7097,0
EMG,20210121,16.7097,16.7097,16.7097,16.7097,0
EMG,20210122,16.7097,16.7097,16.7097,16.7097,0
EMG,20210125,16.7097,16.7097,16.7097,16.7097,0
EMG,20210126,16.7097,16.7097,16.7097,16.7097,0
EMG,20210127,16.7097,16.7097,16.7097,16.7097,0
EMG,20210128,16.7097,16.7097,16.7097,16.7097,0
EMG,20210129,16.7097,16.7097,16.7097,16.7097,0
EMG,20210201,16.7097,16.7097,16.7097,16.7097,0
EMG,20210202,16.7097,16.7097,16.7097,16.7097,0
EMG,20210203,16.7097,16.7097,16.7097,16.7097,0
EMG,20210204,16.7097,16.7097,16.7097,16.7097,0
EMG,20210205,16.7097,16.7097,16.7097,16.7097,0
EMG,20210208,16.7097,16.7097,16.7097,16.7097,0
EMG,20210209,16.7097,16.7097,16.7097,16.7097,0
EMG,20210217,16.7097,16.7097,16.7097,16.7097,0
EMG,20210218,16.7097,16.7097,16.7097,16.7097,0
EMG,20210219,16.7097,16.7097,16.7097,16.7097,0
EMG,20210222,16.7097,16.7097,16.7097,16.7097,0
EMG,20210223,16.7097,16.7097,16.7097,16.7097,0
EMG,20210224,16.7097,16.7097,16.7097,16.7097,0
EMG,20210225,16.7097,16.7097,16.7097,16.7097,0
EMG,20210226,16.7097,16.7097,16.7097,16.7097,0
EMG,20210301,16.7097,16.7097,16.7097,16.7097,0
EMG,20210302,16.7097,16.7097,16.7097,16.7097,0
EMG,20210303,16.7097,16.7097,16.7097,16.7097,0
EMG,20210304,16.7097,16.7097,16.7097,16.7097,0
EMG,20210305,16.7097,16.7097,16.7097,16.7097,0
EMG,20210308,16.7097,16.7097,16.7097,16.7097,0
EMG,20210309,16.7097,16.7097,16.7097,16.7097,0
EMG,20210310,16.7097,16.7097,16.7097,16.7097,0
EMG,20210311,16.7097,16.7097,16.7097,16.7097,0
EMG,20210312,16.7097,16.7097,16.7097,16.7097,0
EMG,20210315,16.7097,16.7097,16.7097,16.7097,0
EMG,20210316,16.7097,16.7097,16.7097,16.7097,0
EMG,20210317,16.7097,16.7097,16.7097,16.7097,0
EMG,20210318,16.7097,16.7097,16.7097,16.7097,0
EMG,20210319,16.7097,16.7097,16.7097,16.7097,0
EMG,20210322,16.7097,16.7097,16.7097,16.7097,0
EMG,20210323,16.7097,16.7097,16.7097,16.7097,0
EMG,20210324,16.7097,16.7097,16.7097,16.7097,0
EMG,20210325,16.7097,16.7097,16.7097,16.7097,0
EMG,20210326,16.7097,16.7097,16.7097,16.7097,0
EMG,20210329,16.7097,16.7097,16.7097,16.7097,0
EMG,20210330,16.7097,16.7097,16.7097,16.7097,0
EMG,20210331,16.7097,16.7097,16.7097,16.7097,0
EMG,20210401,16.7097,16.7097,16.7097,16.7097,0
EMG,20210402,16.7097,16.7097,16.7097,16.7097,0
EMG,20210405,16.7097,16.7097,16.7097,16.7097,0
EMG,20210406,16.7097,16.7097,16.7097,16.7097,0
EMG,20210407,16.7097,16.7097,16.7097,16.7097,0
EMG,20210408,16.7097,16.7097,16.7097,16.7097,0
EMG,20210409,16.7097,16.7097,16.7097,16.7097,0
EMG,20210412,16.7097,16.7097,16.7097,16.7097,0
EMG,20210413,16.7097,16.7097,16.7097,16.7097,0
EMG,20210414,16.7097,16.7097,16.7097,16.7097,0
EMG,20210415,16.7097,16.7097,16.7097,16.7097,0
EMG,20210416,16.7097,16.7097,16.7097,16.7097,0
EMG,20210419,16.7097,16.7097,16.7097,16.7097,0
EMG,20210420,16.7097,16.7097,16.7097,16.7097,0
EMG,20210422,16.7097,16.7097,16.7097,16.7097,0
EMG,20210423,16.7097,16.7097,16.7097,16.7097,0
EMG,20210426,16.7097,16.7097,16.7097,16.7097,0
EMG,20210427,16.7097,16.7097,16.7097,16.7097,0
EMG,20210428,16.7097,16.7097,16.7097,16.7097,0
EMG,20210429,16.7097,16.7097,16.7097,16.7097,0
EMG,20210504,16.7097,16.7097,16.7097,16.7097,0
EMG,20210505,16.7097,16.7097,16.7097,16.7097,0
EMG,20210506,16.7097,16.7097,16.7097,16.7097,0
EMG,20210507,10.0258,10.0258,10.0258,10.0258,7700
EMG,20210510,10.0258,10.0258,10.0258,10.0258,35
EMG,20210511,10.0258,10.0258,10.0258,10.0258,0
EMG,20210512,10.0258,10.0258,10.0258,10.0258,0
EMG,20210513,10.0258,10.0258,10.0258,10.0258,0
EMG,20210514,10.0258,10.0258,10.0258,10.0258,0
EMG,20210517,10.0258,10.0258,10.0258,10.0258,0
EMG,20210518,10.0258,10.0258,10.0258,10.0258,0
EMG,20210519,10.0258,10.0258,10.0258,10.0258,0
EMG,20210520,10.0258,10.0258,10.0258,10.0258,0
EMG,20210521,10.0258,10.0258,10.0258,10.0258,0
EMG,20210524,10.0258,10.0258,10.0258,10.0258,0
EMG,20210525,10.0258,10.0258,10.0258,10.0258,0
EMG,20210526,10.0258,10.0258,10.0258,10.0258,0
EMG,20210527,10.0258,10.0258,10.0258,10.0258,0
EMG,20210528,10.0258,10.0258,10.0258,10.0258,0
EMG,20210531,10.0258,10.0258,10.0258,10.0258,0
EMG,20210601,10.0258,10.0258,10.0258,10.0258,0
EMG,20210602,10.0258,10.0258,10.0258,10.0258,0
EMG,20210603,10.0258,10.0258,10.0258,10.0258,0
EMG,20210604,10.0258,10.0258,10.0258,10.0258,0
EMG,20210607,10.0258,10.0258,10.0258,10.0258,0
EMG,20210608,10.0258,10.0258,10.0258,10.0258,0
EMG,20210609,10.0258,10.0258,10.0258,10.0258,0
EMG,20210610,10.0258,10.0258,10.0258,10.0258,0
EMG,20210611,10.0258,10.0258,10.0258,10.0258,0
EMG,20210614,10.0258,10.0258,10.0258,10.0258,0
EMG,20210615,10.0258,10.0258,10.0258,10.0258,0
EMG,20210616,10.0258,10.0258,10.0258,10.0258,0
EMG,20210617,10.0258,10.0258,10.0258,10.0258,0
EMG,20210618,10.0258,10.0258,10.0258,10.0258,0
EMG,20210621,14.0000,14.0000,14.0000,14.0000,3600
EMG,20210622,14.0000,14.0000,14.0000,14.0000,0
EMG,20210623,14.0000,14.0000,14.0000,14.0000,31
EMG,20210624,14.0000,14.0000,14.0000,14.0000,0
EMG,20210625,14.0000,14.0000,14.0000,14.0000,0
EMG,20210628,14.0000,14.0000,14.0000,14.0000,0
EMG,20210629,14.0000,14.0000,14.0000,14.0000,0
EMG,20210630,14.0000,14.0000,14.0000,14.0000,0
EMG,20210701,14.0000,14.0000,14.0000,14.0000,0
EMG,20210702,14.0000,14.0000,14.0000,14.0000,0
EMG,20210705,14.0000,14.0000,14.0000,14.0000,0
EMG,20210706,14.0000,14.0000,14.0000,14.0000,0
EMG,20210707,14.0000,14.0000,14.0000,14.0000,0
EMG,20210708,14.0000,14.0000,14.0000,14.0000,0
EMG,20210709,14.0000,14.0000,14.0000,14.0000,0
EMG,20210712,14.0000,14.0000,14.0000,14.0000,0
EMG,20210713,14.0000,14.0000,14.0000,14.0000,0
EMG,20210714,14.0000,14.0000,14.0000,14.0000,0
EMG,20210715,14.0000,14.0000,14.0000,14.0000,0
EMG,20210716,14.0000,14.0000,14.0000,14.0000,0
EMG,20210719,14.0000,14.0000,14.0000,14.0000,0
EMG,20210720,14.0000,14.0000,14.0000,14.0000,0
EMG,20210721,14.0000,14.0000,14.0000,14.0000,0
EMG,20210722,14.0000,14.0000,14.0000,14.0000,0
EMG,20210723,14.0000,14.0000,14.0000,14.0000,0
EMG,20210726,14.0000,14.0000,14.0000,14.0000,0
EMG,20210727,14.0000,14.0000,14.0000,14.0000,0
EMG,20210728,14.0000,14.0000,14.0000,14.0000,0
EMG,20210729,14.0000,14.0000,14.0000,14.0000,0
EMG,20210730,14.0000,14.0000,14.0000,14.0000,0
EMG,20210802,14.0000,14.0000,14.0000,14.0000,0
EMG,20210803,14.0000,14.0000,14.0000,14.0000,0
EMG,20210804,14.0000,14.0000,14.0000,14.0000,0
EMG,20210805,14.0000,14.0000,14.0000,14.0000,0
EMG,20210806,14.0000,14.0000,14.0000,14.0000,0
EMG,20210809,14.0000,14.0000,14.0000,14.0000,0
EMG,20210810,14.0000,14.0000,14.0000,14.0000,0
EMG,20210811,14.0000,14.0000,14.0000,14.0000,0
EMG,20210812,14.0000,14.0000,14.0000,14.0000,0
EMG,20210813,14.0000,14.0000,14.0000,14.0000,0
EMG,20210816,14.0000,14.0000,14.0000,14.0000,0
EMG,20210817,14.0000,14.0000,14.0000,14.0000,0
EMG,20210818,14.0000,14.0000,14.0000,14.0000,0
EMG,20210819,14.0000,14.0000,14.0000,14.0000,0
EMG,20210820,14.0000,14.0000,14.0000,14.0000,0
EMG,20210823,14.0000,14.0000,14.0000,14.0000,0
EMG,20210824,14.0000,14.0000,14.0000,14.0000,0
EMG,20210825,14.0000,14.0000,14.0000,14.0000,0
EMG,20210826,14.0000,14.0000,14.0000,14.0000,0
EMG,20210827,14.0000,14.0000,14.0000,14.0000,0
EMG,20210830,14.0000,14.0000,14.0000,14.0000,0
EMG,20210831,14.0000,14.0000,14.0000,14.0000,0
EMG,20210901,14.0000,14.0000,14.0000,14.0000,0
EMG,20210906,14.0000,14.0000,14.0000,14.0000,0
EMG,20210907,14.0000,14.0000,14.0000,14.0000,0
EMG,20210908,14.0000,14.0000,14.0000,14.0000,0
EMG,20210909,14.0000,14.0000,14.0000,14.0000,0
EMG,20210910,14.0000,14.0000,14.0000,14.0000,0
EMG,20210913,14.0000,14.0000,14.0000,14.0000,0
EMG,20210914,14.0000,14.0000,14.0000,14.0000,0
EMG,20210915,14.0000,14.0000,14.0000,14.0000,0
EMG,20210916,14.0000,14.0000,14.0000,14.0000,0
EMG,20210917,14.0000,14.0000,14.0000,14.0000,0
EMG,20210920,14.0000,14.0000,14.0000,14.0000,0
EMG,20210921,14.0000,14.0000,14.0000,14.0000,0
EMG,20210922,14.0000,14.0000,14.0000,14.0000,0
EMG,20210923,14.0000,14.0000,14.0000,14.0000,0
EMG,20210924,14.0000,14.0000,14.0000,14.0000,0
EMG,20210927,14.0000,14.0000,14.0000,14.0000,0
EMG,20210928,14.0000,14.0000,14.0000,14.0000,0
EMG,20210929,14.0000,14.0000,14.0000,14.0000,0
EMG,20210930,14.0000,14.0000,14.0000,14.0000,0
EMG,20211001,14.0000,14.0000,14.0000,14.0000,0
EMG,20211004,14.0000,14.0000,14.0000,14.0000,0
EMG,20211005,14.0000,14.0000,14.0000,14.0000,0
EMG,20211006,14.0000,14.0000,14.0000,14.0000,0
EMG,20211007,14.0000,14.0000,14.0000,14.0000,0
EMG,20211008,14.0000,14.0000,14.0000,14.0000,0
EMG,20211011,14.0000,14.0000,14.0000,14.0000,0
EMG,20211012,14.0000,14.0000,14.0000,14.0000,0
EMG,20211013,14.0000,14.0000,14.0000,14.0000,0
EMG,20211014,14.0000,14.0000,14.0000,14.0000,0
EMG,20211015,14.0000,14.0000,14.0000,14.0000,0
EMG,20211018,14.0000,14.0000,14.0000,14.0000,0
EMG,20211019,14.0000,14.0000,14.0000,14.0000,0
EMG,20211020,14.0000,14.0000,14.0000,14.0000,0
EMG,20211021,14.0000,14.0000,14.0000,14.0000,0
EMG,20211022,14.0000,14.0000,14.0000,14.0000,0
EMG,20211025,14.0000,14.0000,14.0000,14.0000,0
EMG,20211026,14.0000,14.0000,14.0000,14.0000,0
EMG,20211027,14.0000,14.0000,14.0000,14.0000,0
EMG,20211028,14.0000,14.0000,14.0000,14.0000,0
EMG,20211029,14.0000,14.0000,14.0000,14.0000,0
EMG,20211101,14.0000,14.0000,14.0000,14.0000,0
EMG,20211102,14.0000,14.0000,14.0000,14.0000,0
EMG,20211103,14.0000,14.0000,14.0000,14.0000,0
EMG,20211104,14.0000,14.0000,14.0000,14.0000,0
EMG,20211105,14.0000,14.0000,14.0000,14.0000,0
EMG,20211108,14.0000,14.0000,14.0000,14.0000,0
EMG,20211109,14.0000,14.0000,14.0000,14.0000,0
EMG,20211110,14.0000,14.0000,14.0000,14.0000,0
EMG,20211111,14.0000,14.0000,14.0000,14.0000,0
EMG,20211112,14.0000,14.0000,14.0000,14.0000,0
EMG,20211115,14.0000,14.0000,14.0000,14.0000,0
EMG,20211116,14.0000,14.0000,14.0000,14.0000,0
EMG,20211117,14.0000,14.0000,14.0000,14.0000,0
EMG,20211118,14.0000,14.0000,14.0000,14.0000,0
EMG,20211119,14.0000,14.0000,14.0000,14.0000,0
EMG,20211122,14.0000,14.0000,14.0000,14.0000,0
EMG,20211123,14.0000,14.0000,14.0000,14.0000,0
EMG,20211124,14.0000,14.0000,14.0000,14.0000,0
EMG,20211125,14.0000,14.0000,14.0000,14.0000,0
EMG,20211126,14.0000,14.0000,14.0000,14.0000,0
EMG,20211129,14.0000,14.0000,14.0000,14.0000,0
EMG,20211130,14.0000,14.0000,14.0000,14.0000,0
EMG,20211201,14.0000,14.0000,14.0000,14.0000,0
EMG,20211202,14.0000,14.0000,14.0000,14.0000,0
EMG,20211203,14.0000,14.0000,14.0000,14.0000,0
EMG,20211206,14.0000,14.0000,14.0000,14.0000,0
EMG,20211207,14.0000,14.0000,14.0000,14.0000,0
EMG,20211208,14.0000,14.0000,14.0000,14.0000,0
EMG,20211209,14.0000,14.0000,14.0000,14.0000,0
EMG,20211210,14.0000,14.0000,14.0000,14.0000,0
EMG,20211213,14.0000,14.0000,14.0000,14.0000,0
EMG,20211214,14.0000,14.0000,14.0000,14.0000,0
EMG,20211215,14.0000,14.0000,14.0000,14.0000,0
EMG,20211216,14.0000,14.0000,14.0000,14.0000,0
EMG,20211217,14.0000,14.0000,14.0000,14.0000,0
EMG,20211220,14.0000,14.0000,14.0000,14.0000,0
EMG,20211221,14.0000,14.0000,14.0000,14.0000,0
EMG,20211222,14.0000,14.0000,14.0000,14.0000,0
EMG,20211223,14.0000,14.0000,14.0000,14.0000,0
EMG,20211224,14.0000,14.0000,14.0000,14.0000,0
EMG,20211227,14.0000,14.0000,14.0000,14.0000,0
EMG,20211228,14.0000,14.0000,14.0000,14.0000,0
EMG,20211229,14.0000,14.0000,14.0000,14.0000,0
EMG,20211230,14.0000,14.0000,14.0000,14.0000,0
EMG,20211231,14.0000,14.0000,14.0000,14.0000,0
EMG,20220104,14.0000,14.0000,14.0000,14.0000,0
EMG,20220105,14.0000,14.0000,14.0000,14.0000,0
EMG,20220106,14.0000,14.0000,14.0000,14.0000,0
EMG,20220107,14.0000,14.0000,14.0000,14.0000,0
EMG,20220110,14.0000,14.0000,14.0000,14.0000,0
EMG,20220111,14.0000,14.0000,14.0000,14.0000,0
EMG,20220112,14.0000,14.0000,14.0000,14.0000,0
EMG,20220113,14.0000,14.0000,14.0000,14.0000,0
EMG,20220114,14.0000,14.0000,14.0000,14.0000,0
EMG,20220117,14.0000,14.0000,14.0000,14.0000,0
EMG,20220118,14.0000,14.0000,14.0000,14.0000,0
EMG,20220119,14.0000,14.0000,14.0000,14.0000,0
EMG,20220120,14.0000,14.0000,14.0000,14.0000,0
EMG,20220121,14.0000,14.0000,14.0000,14.0000,0
EMG,20220124,14.0000,14.0000,14.0000,14.0000,0
EMG,20220125,14.0000,14.0000,14.0000,14.0000,0
EMG,20220126,14.0000,14.0000,14.0000,14.0000,0
EMG,20220127,14.0000,14.0000,14.0000,14.0000,0
EMG,20220128,14.0000,14.0000,14.0000,14.0000,0
EMG,20220207,14.0000,14.0000,14.0000,14.0000,0
EMG,20220208,14.0000,14.0000,14.0000,14.0000,0
EMG,20220209,14.0000,14.0000,14.0000,14.0000,0
EMG,20220210,14.0000,14.0000,14.0000,14.0000,0
EMG,20220211,14.0000,14.0000,14.0000,14.0000,0
EMG,20220214,14.0000,14.0000,14.0000,14.0000,0
EMG,20220215,14.0000,14.0000,14.0000,14.0000,0
EMG,20220216,14.0000,14.0000,14.0000,14.0000,0
EMG,20220217,14.0000,14.0000,14.0000,14.0000,0
EMG,20220218,14.0000,14.0000,14.0000,14.0000,0
EMG,20220221,14.0000,14.0000,14.0000,14.0000,0
EMG,20220222,14.0000,14.0000,14.0000,14.0000,0
EMG,20220223,14.0000,14.0000,14.0000,14.0000,0
EMG,20220224,14.0000,14.0000,14.0000,14.0000,0
EMG,20220225,14.0000,14.0000,14.0000,14.0000,0
EMG,20220228,14.0000,14.0000,14.0000,14.0000,0
EMG,20220301,14.0000,14.0000,14.0000,14.0000,0
EMG,20220302,14.0000,14.0000,14.0000,14.0000,0
EMG,20220303,14.0000,14.0000,14.0000,14.0000,0
EMG,20220304,14.0000,14.0000,14.0000,14.0000,0
EMG,20220307,14.0000,14.0000,14.0000,14.0000,0
EMG,20220308,14.0000,14.0000,14.0000,14.0000,0
EMG,20220309,14.0000,14.0000,14.0000,14.0000,0
EMG,20220310,14.0000,14.0000,14.0000,14.0000,0
EMG,20220311,14.0000,14.0000,14.0000,14.0000,0
EMG,20220314,14.0000,14.0000,14.0000,14.0000,0
EMG,20220315,14.0000,14.0000,14.0000,14.0000,0
EMG,20220316,14.0000,14.0000,14.0000,14.0000,0
EMG,20220317,14.0000,14.0000,14.0000,14.0000,0
EMG,20220318,14.0000,14.0000,14.0000,14.0000,0
EMG,20220321,14.0000,14.0000,14.0000,14.0000,0
EMG,20220322,14.0000,14.0000,14.0000,14.0000,0
EMG,20220323,14.0000,14.0000,14.0000,14.0000,0
EMG,20220324,14.0000,14.0000,14.0000,14.0000,0
EMG,20220325,14.0000,14.0000,14.0000,14.0000,0
EMG,20220328,14.0000,14.0000,14.0000,14.0000,0
EMG,20220329,14.0000,14.0000,14.0000,14.0000,0
EMG,20220330,14.0000,14.0000,14.0000,14.0000,0
EMG,20220331,14.0000,14.0000,14.0000,14.0000,0
EMG,20220401,14.0000,14.0000,14.0000,14.0000,0
EMG,20220404,14.0000,14.0000,14.0000,14.0000,0
EMG,20220405,14.0000,14.0000,14.0000,14.0000,0
EMG,20220406,14.0000,14.0000,14.0000,14.0000,0
EMG,20220407,14.0000,14.0000,14.0000,14.0000,0
EMG,20220408,14.0000,14.0000,14.0000,14.0000,200
EMG,20220412,14.0000,14.0000,14.0000,14.0000,0
EMG,20220413,14.0000,14.0000,14.0000,14.0000,0
EMG,20220414,14.0000,14.0000,14.0000,14.0000,0
EMG,20220415,14.0000,14.0000,14.0000,14.0000,0
EMG,20220418,14.0000,14.0000,14.0000,14.0000,0
EMG,20220419,14.0000,14.0000,14.0000,14.0000,0
EMG,20220420,14.0000,14.0000,14.0000,14.0000,0
EMG,20220421,14.0000,14.0000,14.0000,14.0000,0
EMG,20220422,14.0000,14.0000,14.0000,14.0000,0
EMG,20220425,14.0000,14.0000,14.0000,14.0000,0
EMG,20220426,14.0000,14.0000,14.0000,14.0000,0
EMG,20220427,14.0000,14.0000,14.0000,14.0000,0
EMG,20220428,14.0000,14.0000,14.0000,14.0000,0
EMG,20220429,14.0000,14.0000,14.0000,14.0000,0
EMG,20220504,14.0000,14.0000,14.0000,14.0000,0
EMG,20220505,14.0000,14.0000,14.0000,14.0000,0
EMG,20220506,14.0000,14.0000,14.0000,14.0000,0
EMG,20220509,14.0000,14.0000,14.0000,14.0000,0
EMG,20220510,14.0000,14.0000,14.0000,14.0000,0
EMG,20220511,14.0000,14.0000,14.0000,14.0000,0
EMG,20220512,14.0000,14.0000,14.0000,14.0000,0
EMG,20220513,14.0000,14.0000,14.0000,14.0000,0
EMG,20220516,14.0000,14.0000,14.0000,14.0000,0
EMG,20220517,14.0000,14.0000,14.0000,14.0000,0
EMG,20220518,14.0000,14.0000,14.0000,14.0000,0
EMG,20220519,14.0000,14.0000,14.0000,14.0000,0
EMG,20220520,14.0000,14.0000,14.0000,14.0000,0
EMG,20220523,14.0000,14.0000,14.0000,14.0000,0
EMG,20220524,14.0000,14.0000,14.0000,14.0000,0
EMG,20220525,14.0000,14.0000,14.0000,14.0000,0
EMG,20220526,14.0000,14.0000,14.0000,14.0000,0
EMG,20220527,14.0000,14.0000,14.0000,14.0000,0
EMG,20220530,14.0000,14.0000,14.0000,14.0000,0
EMG,20220531,14.0000,14.0000,14.0000,14.0000,0
EMG,20220601,14.0000,14.0000,14.0000,14.0000,0
EMG,20220602,14.0000,14.0000,14.0000,14.0000,0
EMG,20220603,14.0000,14.0000,14.0000,14.0000,0
EMG,20220606,14.0000,14.0000,14.0000,14.0000,0
EMG,20220607,14.0000,14.0000,14.0000,14.0000,0
EMG,20220608,14.0000,14.0000,14.0000,14.0000,0
EMG,20220609,14.0000,14.0000,14.0000,14.0000,0
EMG,20220610,14.0000,14.0000,14.0000,14.0000,0
EMG,20220613,14.0000,14.0000,14.0000,14.0000,0
EMG,20220614,14.0000,14.0000,14.0000,14.0000,0
EMG,20220615,14.0000,14.0000,14.0000,14.0000,0
EMG,20220616,14.0000,14.0000,14.0000,14.0000,0
EMG,20220617,14.0000,14.0000,14.0000,14.0000,0
EMG,20220620,14.0000,14.0000,14.0000,14.0000,0
EMG,20220621,14.0000,14.0000,14.0000,14.0000,0
EMG,20220622,14.0000,14.0000,14.0000,14.0000,0
EMG,20220623,14.0000,14.0000,14.0000,14.0000,0
EMG,20220624,14.0000,14.0000,14.0000,14.0000,0
EMG,20220627,14.0000,14.0000,14.0000,14.0000,0
EMG,20220628,14.0000,14.0000,14.0000,14.0000,0
EMG,20220629,14.0000,14.0000,14.0000,14.0000,0
EMG,20220630,14.0000,14.0000,14.0000,14.0000,0
EMG,20220701,14.0000,14.0000,14.0000,14.0000,0
EMG,20220704,14.0000,14.0000,14.0000,14.0000,0
EMG,20220705,14.0000,14.0000,14.0000,14.0000,0
EMG,20220706,14.0000,14.0000,14.0000,14.0000,0
EMG,20220707,14.0000,14.0000,14.0000,14.0000,0
EMG,20220708,14.0000,14.0000,14.0000,14.0000,0
EMG,20220711,14.0000,14.0000,14.0000,14.0000,0
EMG,20220712,14.0000,14.0000,14.0000,14.0000,0
EMG,20220713,14.0000,14.0000,14.0000,14.0000,0
EMG,20220714,14.0000,14.0000,14.0000,14.0000,0
EMG,20220715,12.5000,12.5000,12.5000,12.5000,0
EMG,20220718,12.5000,12.5000,12.5000,12.5000,0
EMG,20220719,12.5000,12.5000,12.5000,12.5000,0
EMG,20220720,12.5000,12.5000,12.5000,12.5000,0
EMG,20220721,12.5000,12.5000,12.5000,12.5000,0
EMG,20220722,12.6000,12.6000,12.6000,12.6000,22255
EMG,20220725,12.6000,12.6000,12.6000,12.6000,0
EMG,20220726,12.6000,12.6000,12.6000,12.6000,0
EMG,20220727,12.6000,12.6000,12.6000,12.6000,0
EMG,20220728,12.6000,12.6000,12.6000,12.6000,0
EMG,20220729,12.6000,12.6000,12.6000,12.6000,0
EMG,20220801,12.6000,12.6000,12.6000,12.6000,0
EMG,20220802,12.6000,12.6000,12.6000,12.6000,0
EMG,20220803,12.6000,12.6000,12.6000,12.6000,0
EMG,20220804,12.6000,12.6000,12.6000,12.6000,0
EMG,20220805,12.6000,12.6000,12.6000,12.6000,0
EMG,20220808,12.6000,12.6000,12.6000,12.6000,0
EMG,20220809,12.6000,12.6000,12.6000,12.6000,0
EMG,20220810,12.6000,12.6000,12.6000,12.6000,0
EMG,20220811,12.6000,12.6000,12.6000,12.6000,0
EMG,20220812,12.6000,12.6000,12.6000,12.6000,0
EMG,20220815,12.6000,12.6000,12.6000,12.6000,0
EMG,20220816,12.6000,12.6000,12.6000,12.6000,0
EMG,20220817,12.6000,12.6000,12.6000,12.6000,0
EMG,20220818,12.6000,12.6000,12.6000,12.6000,0
EMG,20220819,12.6000,12.6000,12.6000,12.6000,0
EMG,20220822,12.6000,12.6000,12.6000,12.6000,0
EMG,20220823,12.6000,12.6000,12.6000,12.6000,0
EMG,20220824,12.6000,12.6000,12.6000,12.6000,0
EMG,20220825,12.6000,12.6000,12.6000,12.6000,0
EMG,20220826,12.6000,12.6000,12.6000,12.6000,0
EMG,20220829,12.6000,12.6000,12.6000,12.6000,0
EMG,20220830,12.6000,12.6000,12.6000,12.6000,0
EMG,20220831,12.6000,12.6000,12.6000,12.6000,0
EMG,20220905,12.6000,12.6000,12.6000,12.6000,0
EMG,20220906,14.4000,14.4000,14.4000,14.4000,27820
EMG,20220907,14.4000,14.4000,14.4000,14.4000,0
EMG,20220908,14.4000,14.4000,14.4000,14.4000,0
EMG,20220909,16.5000,16.5000,16.5000,16.5000,100
EMG,20220912,16.5000,16.5000,16.5000,16.5000,0
EMG,20220913,16.5000,16.5000,16.5000,16.5000,0
EMG,20220914,16.5000,16.5000,16.5000,16.5000,0
EMG,20220915,16.5000,16.5000,16.5000,16.5000,0
EMG,20220916,16.5000,16.5000,16.5000,16.5000,0
EMG,20220919,16.5000,16.5000,16.5000,16.5000,0
EMG,20220920,16.5000,16.5000,16.5000,16.5000,0
EMG,20220921,16.5000,16.5000,16.5000,16.5000,0
EMG,20220922,16.5000,16.5000,16.5000,16.5000,0
EMG,20220923,16.5000,16.5000,16.5000,16.5000,0
EMG,20220926,16.5000,16.5000,16.5000,16.5000,0
EMG,20220927,16.5000,16.5000,16.5000,16.5000,0
EMG,20220928,16.5000,16.5000,16.5000,16.5000,0
EMG,20220929,16.5000,16.5000,16.5000,16.5000,0
EMG,20220930,16.5000,16.5000,16.5000,16.5000,0
EMG,20221003,16.5000,16.5000,16.5000,16.5000,0
EMG,20221004,16.5000,16.5000,16.5000,16.5000,0
EMG,20221005,16.5000,16.5000,16.5000,16.5000,0
EMG,20221006,16.5000,16.5000,16.5000,16.5000,0
EMG,20221007,16.5000,16.5000,16.5000,16.5000,0
EMG,20221010,16.5000,16.5000,16.5000,16.5000,0
EMG,20221011,16.5000,16.5000,16.5000,16.5000,0
EMG,20221012,16.5000,16.5000,16.5000,16.5000,0
EMG,20221013,16.5000,16.5000,16.5000,16.5000,0
EMG,20221014,16.5000,16.5000,16.5000,16.5000,0
EMG,20221017,16.5000,16.5000,16.5000,16.5000,0
EMG,20221018,16.5000,16.5000,16.5000,16.5000,0
EMG,20221019,16.5000,16.5000,16.5000,16.5000,0
EMG,20221020,16.5000,16.5000,16.5000,16.5000,0
EMG,20221021,16.5000,16.5000,16.5000,16.5000,0
EMG,20221024,16.5000,16.5000,16.5000,16.5000,0
EMG,20221025,16.5000,16.5000,16.5000,16.5000,0
EMG,20221026,16.5000,16.5000,16.5000,16.5000,0
EMG,20221027,16.5000,16.5000,16.5000,16.5000,0
EMG,20221028,16.5000,16.5000,16.5000,16.5000,0
EMG,20221031,16.5000,16.5000,16.5000,16.5000,0
EMG,20221101,16.5000,16.5000,16.5000,16.5000,0
EMG,20221102,16.5000,16.5000,16.5000,16.5000,0
EMG,20221103,16.5000,16.5000,16.5000,16.5000,0
EMG,20221104,16.5000,16.5000,16.5000,16.5000,0
EMG,20221107,16.5000,16.5000,16.5000,16.5000,0
EMG,20221108,16.5000,16.5000,16.5000,16.5000,0
EMG,20221109,16.5000,16.5000,16.5000,16.5000,0
EMG,20221110,16.5000,16.5000,16.5000,16.5000,0
EMG,20221111,16.5000,16.5000,16.5000,16.5000,0
EMG,20221114,16.5000,16.5000,16.5000,16.5000,0
EMG,20221115,16.5000,16.5000,16.5000,16.5000,0
EMG,20221116,16.5000,16.5000,16.5000,16.5000,0
EMG,20221117,16.5000,16.5000,16.5000,16.5000,0
EMG,20221118,16.5000,16.5000,16.5000,16.5000,0
EMG,20221121,16.5000,16.5000,16.5000,16.5000,0
EMG,20221122,16.5000,16.5000,16.5000,16.5000,0
EMG,20221123,16.5000,16.5000,16.5000,16.5000,0
EMG,20221124,16.5000,16.5000,16.5000,16.5000,0
EMG,20221125,16.5000,16.5000,16.5000,16.5000,0
EMG,20221128,23.0000,23.0000,23.0000,23.0000,100
EMG,20221129,23.0000,23.0000,23.0000,23.0000,0
EMG,20221130,26.0000,26.0000,26.0000,26.0000,100
EMG,20221201,26.0000,26.0000,26.0000,26.0000,0
EMG,20221202,26.0000,26.0000,26.0000,26.0000,0
EMG,20221205,26.0000,26.0000,26.0000,26.0000,0
EMG,20221206,26.0000,26.0000,26.0000,26.0000,0
EMG,20221207,26.0000,26.0000,26.0000,26.0000,0
EMG,20221208,26.0000,26.0000,26.0000,26.0000,0
EMG,20221209,26.0000,26.0000,26.0000,26.0000,0
EMG,20221212,26.0000,26.0000,26.0000,26.0000,0
EMG,20221213,26.0000,26.0000,26.0000,26.0000,0
EMG,20221214,26.0000,26.0000,26.0000,26.0000,0
EMG,20221215,26.0000,26.0000,26.0000,26.0000,0
EMG,20221216,26.0000,26.0000,26.0000,26.0000,0
EMG,20221219,26.0000,29.0000,26.0000,29.0000,34000
EMG,20221220,27.2000,27.2000,27.2000,27.2000,0
EMG,20221221,27.2000,27.2000,27.2000,27.2000,0
EMG,20221222,27.2000,27.2000,27.2000,27.2000,0
EMG,20221223,27.2000,27.2000,27.2000,27.2000,0
EMG,20221226,27.2000,27.2000,27.2000,27.2000,0
EMG,20221227,27.2000,27.2000,27.2000,27.2000,0
EMG,20221228,27.2000,27.2000,27.2000,27.2000,0
EMG,20221229,27.2000,27.2000,27.2000,27.2000,0
EMG,20221230,27.2000,27.2000,27.2000,27.2000,0
EMG,20230103,27.2000,27.2000,27.2000,27.2000,0
EMG,20230104,27.2000,27.2000,27.2000,27.2000,0
EMG,20230105,27.2000,27.2000,27.2000,27.2000,0
EMG,20230106,31.2000,31.2000,31.2000,31.2000,100
EMG,20230109,31.2000,31.2000,31.2000,31.2000,0
EMG,20230110,31.2000,31.2000,31.2000,31.2000,0
EMG,20230111,31.2000,31.2000,31.2000,31.2000,0
EMG,20230112,31.2000,31.2000,31.2000,31.2000,0
EMG,20230113,31.2000,31.2000,31.2000,31.2000,0
EMG,20230116,31.2000,31.2000,31.2000,31.2000,0
EMG,20230117,31.2000,31.2000,31.2000,31.2000,0
EMG,20230118,31.2000,31.2000,31.2000,31.2000,0
EMG,20230119,31.2000,31.2000,31.2000,31.2000,0
EMG,20230127,31.2000,31.2000,31.2000,31.2000,0
EMG,20230130,31.2000,31.2000,31.2000,31.2000,0
EMG,20230131,31.2000,31.2000,31.2000,31.2000,0
EMG,20230201,31.2000,31.2000,31.2000,31.2000,100
EMG,20230202,31.2000,31.2000,31.2000,31.2000,0
EMG,20230203,31.2000,31.2000,31.2000,31.2000,0
EMG,20230206,31.2000,31.2000,31.2000,31.2000,0
EMG,20230207,31.2000,31.2000,31.2000,31.2000,0
EMG,20230208,31.2000,31.2000,31.2000,31.2000,0
EMG,20230209,31.2000,31.2000,31.2000,31.2000,0
EMG,20230210,31.2000,31.2000,31.2000,31.2000,0
EMG,20230213,31.2000,31.2000,31.2000,31.2000,0
EMG,20230214,31.2000,31.2000,31.2000,31.2000,0
EMG,20230215,31.2000,31.2000,31.2000,31.2000,0
EMG,20230216,31.2000,31.2000,31.2000,31.2000,0
EMG,20230217,31.2000,31.2000,31.2000,31.2000,0
EMG,20230220,31.2000,31.2000,31.2000,31.2000,0
EMG,20230221,31.2000,31.2000,31.2000,31.2000,0
EMG,20230222,31.2000,31.2000,31.2000,31.2000,0
EMG,20230223,31.2000,31.2000,31.2000,31.2000,0
EMG,20230224,31.2000,31.2000,31.2000,31.2000,0
EMG,20230227,31.2000,31.2000,31.2000,31.2000,0
EMG,20230228,31.2000,31.2000,31.2000,31.2000,0
EMG,20230301,31.2000,31.2000,31.2000,31.2000,0
EMG,20230302,31.2000,31.2000,31.2000,31.2000,0
EMG,20230303,31.2000,31.2000,31.2000,31.2000,0
EMG,20230306,31.2000,31.2000,31.2000,31.2000,0
EMG,20230307,31.2000,31.2000,31.2000,31.2000,0
EMG,20230308,31.2000,31.2000,31.2000,31.2000,0
EMG,20230309,31.2000,31.2000,31.2000,31.2000,0
EMG,20230310,31.2000,31.2000,31.2000,31.2000,0
EMG,20230313,31.2000,31.2000,31.2000,31.2000,0
EMG,20230314,31.2000,31.2000,31.2000,31.2000,0
EMG,20230315,31.2000,31.2000,31.2000,31.2000,0
EMG,20230316,31.2000,31.2000,31.2000,31.2000,0
EMG,20230317,31.2000,31.2000,31.2000,31.2000,0
EMG,20230320,31.2000,31.2000,31.2000,31.2000,0
